c_ts,c_val,d_ts,d_val,e_ts,e_val,c_val_filtered,d_val_filtered,e_val_filtered
69705,15068,69705,38570,69705,63311,-518.0278564583526,-351.7829601558509,-772.9613941048711
69705,15059,69705,38570,69705,63268,-528.4014503718049,-357.84238468280427,-789.6915241345906
69716,15061,69716,38583,69716,63277,-539.0703412652856,-364.127499441905,-806.8744585867893
69716,15068,69716,38591,69716,63299,-550.0293533677974,-370.63810557107973,-824.4989404586688
69716,15042,69716,38601,69716,63270,-561.272408712423,-377.37263927496076,-842.5527587043674
69716,15013,69716,38538,69716,63243,-572.7924461766788,-384.3278635536991,-861.0223411488205
69716,14992,69716,38494,69716,63187,-584.5816776023546,-391.4990951817509,-879.8927851002884
69716,14978,69716,38508,69716,63185,-596.6320496768908,-398.8810338187983,-899.1483625245621
69726,14989,69726,38535,69726,63185,-608.9355839793988,-406.4684446195034,-918.7730105165509
69726,14994,69726,38554,69726,63180,-621.4843748612159,-414.2560347740374,-938.7503785429799
69726,14974,69726,38511,69726,63174,-634.2703020813436,-422.2378479422312,-959.0635038023864
69726,14959,69726,38498,69726,63124,-647.284784271789,-430.40696802907235,-979.6945078330727
69726,14936,69726,38468,69726,63101,-660.5188021765048,-438.7557996267809,-1000.6246326418811
69726,14932,69726,38503,69726,63102,-673.9630948017475,-447.27650238749186,-1021.834552170716
69737,14931,69737,38521,69737,63116,-687.6082960390064,-455.96101697451604,-1043.3044841302374
69737,14933,69737,38514,69737,63088,-701.4448582548162,-464.8005614220448,-1065.0138518826202
69737,14906,69737,38474,69737,63055,-715.4628299322235,-473.78510612045034,-1086.940881520023
69737,14894,69737,38445,69737,63004,-729.6517325428088,-482.9033984029995,-1109.0626245449785
69737,14868,69737,38438,69737,62966,-744.0006604173828,-492.1434864643021,-1131.355467565392
69737,14870,69737,38437,69737,62966,-758.4984784814072,-501.49323299150444,-1153.7957978486356
69747,14871,69747,38447,69747,63006,-773.1338976193059,-510.9404647374354,-1176.3602730143375
69747,14855,69747,38445,69747,62961,-787.895330887162,-520.4727806853881,-1199.0254042098286
69747,14837,69747,38427,69747,62962,-802.7707009305811,-530.0772600220403,-1221.7669108843786
69747,14820,69747,38389,69747,62908,-817.7474155201226,-539.7403819734238,-1244.559442898924
69747,14800,69747,38391,69747,62920,-832.8125014749783,-549.4482935100624,-1267.3766606399658
69747,14801,69747,38416,69747,62914,-847.9527557190302,-559.1871015607132,-1290.1912833790998
69757,14805,69757,38433,69757,62886,-863.1547499645823,-568.9427024642446,-1312.9748780484315
69757,14794,69757,38404,69757,62857,-878.4046064770932,-578.7002057743238,-1335.6976240646654
69757,14772,69757,38375,69757,62824,-893.6877153479836,-588.4435599921632,-1358.3283748677868
69757,14740,69757,38317,69757,62810,-908.9886750218278,-598.1558137862701,-1380.8349422584783
69757,14746,69757,38322,69757,62795,-924.2914848813157,-607.8198735774437,-1403.1843333580332
69757,14744,69757,38361,69757,62789,-939.5796868275735,-617.4191286520603,-1425.3427854003603
69768,14742,69768,38379,69768,62797,-954.8362135247082,-626.9373149734726,-1447.2755710881825
69768,14725,69768,38374,69768,62750,-970.0430774057115,-636.3577335807298,-1468.946668696124
69768,14702,69768,38321,69768,62713,-985.1811822895816,-645.6626072853248,-1490.31862386289
69768,14671,69768,38306,69768,62684,-1000.2303998516243,-654.8331327333559,-1511.3528592236646
69768,14664,69768,38319,69768,62685,-1015.169858945014,-663.8499835380488,-1532.010163933817
69768,14675,69768,38346,69768,62692,-1029.9781833128031,-672.6935365479496,-1552.2508725610244
69778,14668,69778,38330,69778,62697,-1044.6334092068914,-681.3435264103946,-1572.0345625935652
69778,14652,69778,38299,69778,62655,-1059.1126746712614,-689.778610710332,-1591.3195450495552
69778,14624,69778,38274,69778,62620,-1073.3920353508156,-697.9764028643826,-1610.0626513784068
69778,14612,69778,38212,69778,62598,-1087.4465694623268,-705.9140402403349,-1628.2195284682577
69778,14607,69778,38263,69778,62587,-1101.2506006833335,-713.5689664471552,-1645.7451234029318
69778,14606,69778,38265,69778,62579,-1114.7777847725768,-720.9193375993163,-1662.5939728646204
69788,14601,69788,38281,69788,62581,-1128.0009899192423,-727.9437213898082,-1678.720215659826
69788,14582,69788,38285,69788,62561,-1140.892109284588,-734.620472161587,-1694.0774391157474
69788,14555,69788,38220,69788,62543,-1153.422015055682,-740.9273513399173,-1708.6185551050198
69788,14559,69788,38203,69788,62516,-1165.5607196772967,-746.8417521257758,-1722.295883261006
69788,14535,69788,38231,69788,62529,-1177.2775731843756,-752.3413632207313,-1735.0613862381879
69788,14556,69788,38241,69788,62518,-1188.5413255846124,-757.4045174607982,-1746.8667954711493
69799,14539,69799,38265,69799,62502,-1199.3200208761946,-762.0098759728991,-1757.6635541032892
69799,14522,69799,38193,69799,62466,-1209.5808309669947,-766.1359646026399,-1767.4028579149222
69799,14485,69799,38187,69799,62453,-1219.290099681599,-769.7612533918445,-1776.0360184242363
69799,14484,69799,38193,69799,62447,-1228.413709218401,-772.8647818214206,-1783.5149918812172
69799,14497,69799,38228,69799,62447,-1236.9174645577746,-775.4265918519878,-1789.7927681139504
69799,14498,69799,38238,69799,62472,-1244.7671326493794,-777.4275080270245,-1794.8234669696258
69809,14489,69809,38202,69809,62411,-1251.9281981925046,-778.8486477656586,-1798.5622693345776
69809,14469,69809,38178,69809,62403,-1258.3657034082503,-779.6713424354131,-1800.9656112157418
69809,14456,69809,38173,69809,62403,-1264.0443752900865,-779.8776438533421,-1801.9918042218123
69809,14451,69809,38198,69809,62409,-1268.9289422972106,-779.4509129070206,-1801.6016244581115
69809,14461,69809,38209,69809,62415,-1272.984404850291,-778.3759788671288,-1799.7585453530255
69809,14455,69809,38213,69809,62425,-1276.176111009151,-776.6389043279827,-1796.4287634064356
69819,14457,69819,38224,69819,62418,-1278.4697113135185,-774.2267023212605,-1791.5812082642178
69819,14428,69819,38205,69819,62412,-1279.8311962756638,-771.1272165211176,-1785.1876758187518
69819,14403,69819,38183,69819,62414,-1280.2272078603098,-767.3292722164568,-1777.223160209705
69819,14431,69819,38207,69819,62414,-1279.6255855695267,-762.8231024856236,-1767.6662925360629
69819,14438,69819,38213,69819,62468,-1277.9957434587427,-757.6007261332275,-1756.4996664916603
69819,14441,69819,38236,69819,62483,-1275.308644365021,-751.6559862824718,-1743.7098148307568
69830,14433,69830,38236,69830,62514,-1271.536679936673,-744.984373323839,-1729.2868655526734
69830,14423,69830,38204,69830,62481,-1266.6537892890199,-737.5829683536508,-1713.2242910755317
69830,14427,69830,38210,69830,62514,-1260.635809078822,-729.45077032782,-1695.519106887633
69830,14435,69830,38260,69830,62570,-1253.4608595315044,-720.5891904803767,-1676.1722689382113
69830,14471,69830,38297,69830,62609,-1245.1095466088072,-711.002084656109,-1655.1886566684425
69830,14477,69830,38304,69830,62632,-1235.5648778082739,-700.6951980382684,-1632.576595099411
69840,14486,69840,38286,69840,62623,-1224.8120520914026,-689.6756515236129,-1608.3475107883246
69840,14476,69840,38288,69840,62624,-1212.8384320920243,-677.9519937029913,-1582.5161645723338
69840,14480,69840,38289,69840,62674,-1199.6338306200955,-665.5346886953816,-1555.1013089408887
69840,14507,69840,38341,69840,62738,-1185.1909438929354,-652.4365518348602,-1526.1261421923843
69840,14536,69840,38401,69840,62776,-1169.505612066376,-638.6726795514079,-1495.6181418698175
69840,14566,69840,38400,69840,62801,-1152.5767474202055,-624.2598082696469,-1463.6085984880363
69850,14568,69850,38397,69850,62838,-1134.4061124616487,-609.2156846700589,-1430.1323829200255
69850,14602,69850,38405,69850,62877,-1114.9982252276623,-593.5590235327198,-1395.2280010649922
69850,14615,69850,38414,69850,62946,-1094.360416009363,-577.3098967607204,-1358.9376311044662
69850,14643,69850,38515,69850,62999,-1072.5028997577353,-560.489953951145,-1321.3069012701962
69850,14675,69850,38509,69850,63043,-1049.4388113101388,-543.1220367364341,-1282.3844553224344
69850,14693,69850,38511,69850,63060,-1025.1841990532246,-525.2295140375086,-1242.2216361470742
69861,14713,69861,38504,69861,63118,-999.7580393260691,-506.8361409062301,-1200.8725246904125
69861,14752,69861,38514,69861,63155,-973.1823418674896,-487.9665555499363,-1158.3941625688608
69861,14783,69861,38584,69861,63216,-945.4822364055273,-468.64679450397034,-1114.8466732717748
69861,14822,69861,38614,69861,63328,-916.685926341722,-448.90426862350864,-1070.293099990482
69861,14864,69861,38666,69861,63381,-886.8245471616326,-428.7671848823686,-1024.798780034541
69861,14901,69861,38672,69861,63441,-855.9319751998055,-408.26386235870575,-978.4304440234978
69871,14928,69871,38659,69871,63465,-824.0446464591881,-387.4224069530583,-931.2556165236942
69871,14958,69871,38681,69871,63528,-791.2015037833409,-366.2709422461274,-883.3425466720416
69871,15015,69871,38731,69871,63627,-757.4440529830515,-344.8380697620675,-834.7602760182481
69871,15081,69871,38797,69871,63700,-722.8162676152048,-323.1529020354223,-785.5782949653687
69871,15109,69871,38815,69871,63744,-687.3641953586207,-301.2444874413095,-735.8658098543049
69871,15162,69871,38805,69871,63785,-651.1355155022995,-279.14119653580383,-685.6912154373648
69881,15197,69881,38810,69881,63841,-614.1792909239462,-256.8707084620478,-635.1220679839985
69881,15242,69881,38828,69881,63898,-576.5458563488965,-234.46055197801667,-584.2252734767981
69881,15294,69881,38882,69881,63977,-538.2867279687881,-211.9386153466284,-533.0671365738826
69881,15345,69881,38971,69881,64061,-499.4544538607621,-189.33307576079937,-481.7131042411829
69881,15401,69881,38982,69881,64102,-460.102352942411,-166.67163406999902,-430.2272585664489
69881,15437,69881,38960,69881,64150,-420.2842075409519,-143.9807075603423,-378.67190875907033
69892,15479,69892,38964,69892,64190,-380.05405557892175,-121.28542985567799,-327.1075838136028
69892,15514,69892,38996,69892,64273,-339.4661676509754,-98.61034577614657,-275.5932578666743
69892,15588,69892,39077,69892,64356,-298.57509390844314,-75.97988965875106,-224.18635498842104
69892,15651,69892,39100,69892,64427,-257.43550578707084,-53.41809993313723,-172.94230483483625
69892,15686,69892,39122,69892,64463,-216.10176402531602,-30.947929381121753,-121.91393061790541
69892,15722,69892,39123,69892,64502,-174.62755118546977,-8.590854557296325,-71.15116745393334
69902,15768,69902,39110,69902,64524,-133.06583202184254,13.632937099354876,-20.701305674231207
69902,15828,69902,39150,69902,64606,-91.46894567620438,35.70397744101308,29.390487400234406
69902,15882,69902,39209,69902,64684,-49.888526445546404,57.6030777376875,79.0808807662836
69902,15939,69902,39249,69902,64746,-8.375214995332499,79.31149699083801,128.32863720732394
69902,15990,69902,39274,69902,64811,33.02170404383844,100.81156323143807,177.09516336910747
69902,16029,69902,39259,69902,64837,74.2546102197307,122.08712915041474,225.34491463417316
69912,16068,69912,39271,69912,64893,115.27770155452515,143.12346800825424,273.04545974862776
69912,16122,69912,39331,69912,64952,156.0469965395332,163.9068471258048,320.167329806053
69912,16180,69912,39396,69912,64976,196.52036340422103,184.42448166931672,366.68389347138805
69912,16209,69912,39388,69912,65081,236.65768939356576,204.66511000003163,412.5713322633876
69912,16251,69912,39382,69912,65065,276.42102143080854,224.61949484306456,457.80870664949066
69912,16286,69912,39359,69912,65100,315.7745195962833,244.28016662470895,502.3778729116134
69923,16317,69923,39403,69923,65124,354.6842894171883,263.6406177271057,546.2629276790101
69923,16386,69923,39427,69923,65220,393.1182337736584,282.6946703810594,589.4495348821279
69923,16417,69923,39494,69923,65285,431.0460712343029,301.43645958986144,631.9248297926792
69923,16475,69923,39516,69923,65348,468.43953198537497,319.860948316282,673.6779795492473
69923,16493,69923,39491,69923,65324,505.27254615675815,337.96448943000064,714.700759071224
69923,16532,69923,39481,69923,65358,541.5212655911489,355.7448092489253,754.987434415503
69933,16561,69933,39500,69933,65423,577.1639097882182,373.20033387259707,794.5340671804754
69933,16624,69933,39574,69933,65476,612.1806047723667,390.329582882013,833.3380658345102
69933,16657,69933,39616,69933,65506,646.553424039877,407.131332695639,871.3982876679652
69933,16677,69933,39588,69933,65519,680.2665553340255,423.60532297633017,908.7151673210408
69933,16705,69933,39577,69933,65552,713.3062902768906,439.75255700427795,945.290459095731
69933,16752,69933,39580,69933,65592,745.6608070208647,455.57478116458094,981.1267630420014
69944,16776,69944,39638,69944,65657,777.3200135024658,471.0737749245976,1016.2272415422217
69944,16826,69944,39644,69944,65676,808.2755488278465,486.2511575324869,1050.59568214841
69944,16852,69944,39678,69944,65743,838.5208601512707,501.10865674638274,1084.2367102780345
69944,16882,69944,39666,69944,65770,868.051284492662,515.6483639710426,1117.1559917789336
69944,16897,69944,39684,69944,65781,896.8640284549583,529.8727187353614,1149.360364507354
69944,16922,69944,39670,69944,65812,924.9579771929546,543.7842447080394,1180.8577145855988
69954,16960,69954,39726,69954,65866,952.333435942091,557.3852274083591,1211.6566639101638
69954,16996,69954,39804,69954,65891,978.9920045002013,570.6777747069906,1241.7664410304837
69954,17013,69954,39769,69954,65901,1004.9366291818999,583.6644887238045,1271.196918939434
69954,17030,69954,39767,69954,65931,1030.171625781205,596.3490690831798,1299.9584693844472
69954,17045,69954,39754,69954,65941,1054.702501437798,608.7361189031627,1328.0615908919017
69954,17061,69954,39758,69954,65974,1078.5356278921777,620.8304367241005,1355.5165064829566
69964,17093,69964,39778,69964,66024,1101.677915716646,632.6363932589244,1382.3328926514719
69964,17137,69964,39871,69964,66070,1124.13666134159,644.157779350699,1408.5199173714232
69964,17147,69964,39847,69964,66098,1145.9196435622464,655.3983273724327,1434.0865827808448
69964,17161,69964,39836,69964,66110,1167.0352527575537,666.3623716837046,1459.0420464312651
69964,17187,69964,39833,69964,66119,1187.4924157994442,677.054842582268,1483.3956111873426
69964,17206,69964,39858,69964,66143,1207.3004236440004,687.4807494389609,1507.156393607036
69975,17240,69975,39888,69975,66179,1226.4688636939693,697.6448753302584,1530.3329558557366
69975,17260,69975,39914,69975,66228,1245.0076869939307,707.5519440723766,1552.9332064527375
69975,17268,69975,39878,69975,66283,1262.9273087668591,717.2069417811507,1574.9646990985161
69975,17265,69975,39872,69975,66247,1280.238547697952,726.6150544980499,1596.435100651242
69975,17282,69975,39898,69975,66252,1296.9523085207272,735.7811468479769,1617.3522269679388
69975,17298,69975,39894,69975,66307,1313.0791856513006,744.7093016645583,1637.7235006619653
69985,17345,69985,39953,69985,66333,1328.6292708477547,753.4027583944672,1657.555546931219
69985,17358,69985,39967,69985,66361,1343.612290029383,761.8642339632178,1676.8543319707696
69985,17357,69985,39962,69985,66352,1358.0378645377243,770.0964357673953,1695.6253965221067
69985,17378,69985,39944,69985,66369,1371.9155585667863,778.1023052958354,1713.8737512964876
69985,17387,69985,39934,69985,66378,1385.25471650241,785.8847130201607,1731.6034927891674
69985,17396,69985,39962,69985,66437,1398.0643064047554,793.4458999281635,1748.8174934832355
69995,17429,69995,40022,69995,66491,1410.352834097166,800.7872524930552,1765.5175427314603
69995,17435,69995,40020,69995,66501,1422.1283619799947,807.9097186156605,1781.704970606273
69995,17449,69995,40010,69995,66481,1433.3986100375628,814.8144253471113,1797.3812001624315
69995,17450,69995,39996,69995,66493,1444.1709789074978,821.5028143426721,1812.547665476885
69995,17448,69995,39977,69995,66517,1454.4524057236706,827.9762079915402,1827.2052998217732
69995,17471,69995,40000,69995,66544,1464.2491152345058,834.2351886658254,1841.3542010498882
70005,17502,70005,40056,70005,66556,1473.5664804931282,840.2792828184863,1854.9936522597995
70005,17527,70005,40069,70005,66595,1482.4092054129035,846.107293948859,1868.1222913256483
70005,17503,70005,40039,70005,66574,1490.7816691432552,851.7179383952719,1880.7382613509803
70005,17516,70005,40034,70005,66593,1498.6880071341236,857.1100210494931,1892.8391862688281
70005,17530,70005,40037,70005,66618,1506.1318822048934,862.2820336597025,1904.4219595125842
70005,17547,70005,40080,70005,66668,1513.1163259477164,867.2317747859688,1915.482704039042
70015,17574,70015,40104,70015,66676,1519.6438527234177,871.9564751307371,1926.017142607896
70015,17573,70015,40119,70015,66667,1525.7167328263724,876.4533595102498,1936.0210445314815
70015,17559,70015,40055,70015,66661,1531.3371758207459,880.7200930788695,1945.4902633431334
70015,17555,70015,40076,70015,66675,1536.5071912494027,884.7545857285326,1954.4203614781532
70015,17572,70015,40075,70015,66675,1541.228223787483,888.5543773517592,1962.8062005460424
70015,17597,70015,40145,70015,66733,1545.5009493123043,892.1163710318333,1970.641786738831
70025,17609,70025,40097,70025,66735,1549.3254342199327,895.4371712565767,1977.9204889244475
70025,17606,70025,40108,70025,66740,1552.7014616679833,898.5134504974258,1984.6354596296196
70025,17605,70025,40098,70025,66743,1555.628704995411,901.3418565474768,1990.7798564082568
70025,17602,70025,40094,70025,66735,1558.1066572600507,903.9186752423822,1996.346744419765
70025,17628,70025,40126,70025,66776,1560.1344949945947,906.2396068757685,2001.3289151947934
70025,17626,70025,40175,70025,66815,1561.711096786292,908.2998992794625,2005.7189739449832
70036,17648,70036,40169,70036,66822,1562.8352389705244,910.0949591297452,2009.5098676678344
70036,17643,70036,40166,70036,66821,1563.505836933419,911.6210429561856,2012.695508229088
70036,17640,70036,40122,70036,66792,1563.7221106398927,912.8754411183057,2015.2709887667068
70036,17625,70036,40114,70036,66776,1563.483567166012,913.856037495619,2017.2322600497394
70036,17641,70036,40116,70036,66836,1562.7898184771448,914.5606052067732,2018.5756170613333
70036,17659,70036,40164,70036,66842,1561.6404854125672,914.9863969816819,2019.2976273446636
70046,17663,70046,40189,70046,66881,1560.035388239796,915.1304006047787,2019.3956813462394
70046,17648,70046,40168,70046,66838,1557.9748517754042,914.990036908524,2018.8686508426204
70046,17645,70046,40128,70046,66825,1555.459805330444,914.5635698481927,2017.7170828192366
70046,17649,70046,40157,70046,66847,1552.4916693757489,913.849860422331,2015.9428903886835
70046,17663,70046,40195,70046,66855,1549.0722980535256,912.8480574457493,2013.549087138941
70046,17669,70046,40206,70046,66858,1545.204145459687,911.5579072064663,2010.539921029133
70056,17660,70056,40172,70056,66860,1540.890554451002,909.9803926409049,2006.921160844514
70056,17634,70056,40149,70056,66840,1536.1359027897006,908.1179249247331,2002.7002477059532
70056,17634,70056,40126,70056,66822,1530.9454527153723,905.9738870989617,1997.8862122862995
70056,17625,70056,40123,70056,66824,1525.3250636790917,903.5519424975053,1992.489383805282
70056,17641,70056,40176,70056,66810,1519.2810453231261,900.855625947149,1986.521092888252
70056,17637,70056,40173,70056,66854,1512.8202537293794,897.8885495164762,1979.9935966406777
70067,17626,70067,40202,70067,66810,1505.9503093099572,894.6550709193765,1972.92028628638
70067,17618,70067,40125,70067,66814,1498.6797195796153,891.1608294776796,1965.3159138905569
70067,17606,70067,40123,70067,66804,1491.0178357330478,887.4126334500176,1957.196566556349
70067,17612,70067,40127,70067,66779,1482.974766199486,883.4178341350215,1948.5795029715453
70067,17600,70067,40164,70067,66819,1474.5613743677272,879.1839413811712,1939.483058206982
70067,17592,70067,40153,70067,66782,1465.7893439658944,874.7188829891422,1929.9267376337502
70077,17585,70077,40158,70077,66757,1456.6712105589102,870.0315171855182,1919.9313678256012
70077,17568,70077,40104,70077,66729,1447.2203324778418,865.1318595987299,1909.5189152631551
70077,17543,70077,40090,70077,66744,1437.4507845868516,860.030793745165,1898.7120369293448
70077,17570,70077,40133,70077,66740,1427.3771987423306,854.739543977804,1887.5338599244296
70077,17539,70077,40134,70077,66716,1417.0147427435722,849.2695723051341,1876.0081027000942
70077,17541,70077,40131,70077,66703,1406.3792534918798,843.6330302599978,1864.1591809914162
70087,17525,70087,40095,70087,66710,1395.4873113766275,837.8431502346477,1852.0121459005902
70087,17493,70087,40042,70087,66654,1384.3561825214572,831.9140679333987,1839.5926010750163
70087,17481,70087,40068,70087,66659,1373.0036121655912,825.8601544421274,1826.9265354360962
70087,17477,70087,40082,70087,66680,1361.447531359703,819.6954868400594,1814.0401111079302
70087,17475,70087,40105,70087,66637,1349.7059172275335,813.43399924989,1800.9597315251299
70087,17469,70087,40079,70087,66608,1337.7968952581236,807.090071024154,1787.7121885259003
70098,17442,70098,40043,70098,66572,1325.7389029355581,800.6788736667341,1774.324391766751
70098,17418,70098,40005,70098,66554,1313.5506793671138,794.2160894914434,1760.8227686396135
70098,17395,70098,40012,70098,66576,1301.2510034124589,787.7172079488596,1747.2327952346136
70098,17408,70098,40016,70098,66552,1288.8583760104284,781.1969779045387,1733.5789529620738
70098,17405,70098,40046,70098,66564,1276.390959774547,774.6693998796553,1719.8850068011238
70098,17389,70098,40008,70098,66561,1263.8668177567117,768.1481161176202,1706.1743493913393
70108,17362,70108,39981,70108,66497,1251.3041269944435,761.6466556647059,1692.4702482969801
70108,17335,70108,39956,70108,66474,1238.721091029367,755.1781515389886,1678.7957002216688
70108,17335,70108,39980,70108,66481,1226.1356378287605,748.754808825434,1665.1728893990955
70108,17344,70108,40002,70108,66493,1213.5652404835996,742.3877405098217,1651.6228727247972
70108,17312,70108,39977,70108,66493,1201.0270341435607,736.0873244605198,1638.1658531584162
70108,17292,70108,39971,70108,66443,1188.5379533971457,729.8635934798561,1624.821640017407
70118,17275,70118,39915,70118,66406,1176.1146021733957,723.7261885835063,1611.6096843417677
70118,17251,70118,39926,70118,66402,1163.7729648983138,717.6838873258748,1598.5485895260836
70118,17247,70118,39943,70118,66401,1151.528150624123,711.7441358918113,1585.6556207362573
70118,17252,70118,39969,70118,66373,1139.3942788971674,705.9130926274195,1572.9465848770833
70118,17248,70118,39960,70118,66401,1127.3846100850812,700.196184791583,1560.4359307996301
70118,17209,70118,39936,70118,66379,1115.5117861386848,694.5986420380017,1548.1369599539967
70129,17188,70129,39901,70129,66354,1103.7878251825414,689.1255430152343,1536.0620883286101
70129,17188,70129,39891,70129,66337,1092.2238209551338,683.7813728903539,1524.2228860402488
70129,17194,70129,39942,70129,66324,1080.8297372879597,678.5695773275306,1512.629855721228
70129,17184,70129,39963,70129,66337,1069.61454415844,673.4927300125428,1501.2922609820487
70129,17176,70129,39931,70129,66305,1058.5865027388309,668.5532670632055,1490.218174602554
70129,17150,70129,39869,70129,66284,1047.7533218974318,663.7539079193209,1479.4145417556515
70139,17130,70139,39872,70139,66252,1037.122082671978,659.0971980123832,1468.886974681836
70139,17113,70139,39864,70139,66300,1026.6989770107011,654.5846972732945,1458.6394344171433
70139,17126,70139,39881,70139,66246,1016.4890568537834,650.2165652018715,1448.6742102081223
70139,17127,70139,39908,70139,66304,1006.4962442965974,645.9916962554867,1438.9921964849873
70139,17111,70139,39898,70139,66257,996.7236046932085,641.9082031780846,1429.5932426819668
70139,17101,70139,39871,70139,66237,987.1735911538847,637.9638637936697,1420.4763957589719
70149,17079,70149,39858,70149,66226,977.8480640326381,634.1561366949624,1411.6397966272561
70149,17092,70149,39856,70149,66231,968.748188532215,630.4818227990846,1403.0803782403716
70149,17076,70149,39921,70149,66229,959.8744188078202,626.9369050910802,1394.7937863440839
70149,17067,70149,39906,70149,66236,951.2265948384404,623.5169774725365,1386.7745756005384
70149,17055,70149,39862,70149,66206,942.8039901514362,620.2178945234737,1379.0164586154358
70149,17045,70149,39833,70149,66192,934.6052537393393,617.0358065194569,1371.512365194017
70160,17023,70160,39835,70160,66183,926.6282988077127,613.966511030566,1364.2542432209038
70160,17030,70160,39831,70160,66200,918.8701606584489,611.0048254853355,1357.2328584042596
70160,17042,70160,39858,70160,66202,911.3269573407376,608.1444098700281,1350.4378825357935
70160,17025,70160,39895,70160,66208,903.9940847051741,605.3780660409418,1343.8582503248242
70160,17012,70160,39871,70160,66214,896.8664496821409,602.6983823085575,1337.4825807392551
70160,17011,70160,39848,70160,66196,889.9385011070499,600.0982438974189,1331.2995235667079
70170,17008,70170,39834,70170,66180,883.2041715820262,597.5707703686262,1325.297912158353
70170,17018,70170,39885,70170,66207,876.6569430414145,595.1089939094007,1319.4667308126166
70170,17010,70170,39890,70170,66199,870.2900564513002,592.7059627281649,1313.7951845242662
70170,17001,70170,39877,70170,66181,864.096734307649,590.3552981097528,1308.272950376743
70170,16990,70170,39830,70170,66121,858.0702684156697,588.0515213339522,1302.890185942426
70170,16971,70170,39817,70170,66128,852.2039387631542,585.7897135374203,1297.6370117041706
70181,16966,70181,39807,70181,66153,846.4908223912063,583.5648041612407,1292.5029069659581
70181,16975,70181,39846,70181,66146,840.9236240213609,581.3710831225208,1287.4766368093267
70181,16973,70181,39842,70181,66177,835.4946946071327,579.2022647205475,1282.5466699600156
70181,16977,70181,39860,70181,66151,830.1962360196608,577.051935492739,1277.7016791313006
70181,16954,70181,39830,70181,66137,825.0205039048325,574.9139632612784,1272.9308408878435
70181,16946,70181,39805,70181,66108,819.9598308725485,572.7825458010694,1268.2237512315512
70191,16945,70191,39842,70191,66142,815.006480384382,570.6519337284932,1263.5701070127245
70191,16955,70191,39864,70191,66123,810.1525521711953,568.516341822415,1258.9595886012871
70191,16964,70191,39852,70191,66138,805.3901235869669,566.3703666848869,1254.3820493828082
70191,16951,70191,39841,70191,66133,800.711556320002,564.2094616584405,1249.8277756342407
70191,16926,70191,39793,70191,66100,796.1096894391152,562.0299369318743,1245.2876390141828
70191,16918,70191,39804,70191,66056,791.577714622114,559.828487003543,1240.7529254400185
70201,16930,70201,39825,70201,66113,787.1089017649167,557.6017070323313,1236.2148467179286
70201,16925,70201,39852,70201,66103,782.6965151753881,555.3461223284878,1231.6643342287325
70201,16936,70201,39855,70201,66121,778.3339792555462,553.0587432346052,1227.0924286273578
70201,16916,70201,39810,70201,66092,774.0150996090099,550.7376031461872,1222.4907841987283
70201,16891,70201,39782,70201,66081,769.7341191962753,548.3817212158989,1217.851832814713
70201,16894,70201,39787,70201,66081,765.4855085491951,545.9905059938582,1213.168638111376
70212,16902,70212,39816,70212,66100,761.2637128386443,543.5632456046714,1208.4347740416074
70212,16914,70212,39841,70212,66084,757.0631838152776,541.0992268394609,1203.6444728932233
70212,16907,70212,39818,70212,66076,752.8786826335415,538.5983192620963,1198.7928648889053
70212,16875,70212,39767,70212,66033,748.7055238667405,536.0613281875283,1193.8759655167971
70212,16866,70212,39734,70212,66044,744.539475533418,533.4895923894913,1188.8903439636765
70212,16862,70212,39755,70212,66009,740.3764063516171,530.8841017400559,1183.8327075303198
70222,16872,70222,39781,70222,66020,736.2120405795688,528.2449583967907,1178.6995984418645
70222,16870,70222,39794,70222,66036,732.0419986630016,525.5715983954815,1173.4872841085235
70222,16869,70222,39787,70222,66037,727.8620003775019,522.863403301618,1168.1919562972932
70222,16851,70222,39745,70222,66002,723.6680201357449,520.1200725552204,1162.8100794550562
70222,16841,70222,39726,70222,65994,719.4562650752134,517.3414226099226,1157.3384572476011
70222,16844,70222,39752,70222,66009,715.2230225985406,514.5268516741871,1151.7740194472506
70232,16844,70232,39785,70232,66008,710.9645697401195,511.675139912944,1146.1137724622413
70232,16838,70232,39785,70232,66012,706.6772355435271,508.78490285157415,1140.3550593101468
70232,16849,70232,39790,70232,65998,702.3575356175422,505.8552851767969,1134.4958741369446
70232,16826,70232,39732,70232,65966,698.002306130343,502.8863161867262,1128.53497637088
70232,16814,70232,39713,70232,65936,693.6087381873417,499.87864359128093,1122.4716568394833
70232,16818,70232,39731,70232,65966,689.1742479322616,496.8328682714895,1116.305291476519
70243,16812,70243,39744,70243,65965,684.6963504279676,493.7491437597911,1110.0351642858705
70243,16804,70243,39753,70243,65964,680.1726648922436,490.6273662423951,1103.660751832087
70243,16800,70243,39762,70243,65926,675.6009441087306,487.4676515177724,1097.182050364475
70243,16784,70243,39707,70243,65927,670.9790410664182,484.2706698794319,1090.599557030279
70243,16777,70243,39692,70243,65900,666.3048108732603,481.03750297671286,1083.914002310051
70243,16787,70243,39733,70243,65913,661.5760046748198,477.76915417249745,1077.1261149529505
70253,16795,70253,39741,70253,65903,656.790319564963,474.466414593446,1070.2365691406178
70253,16796,70253,39726,70253,65905,651.9456753861,471.13029125751126,1063.2461118283381
70253,16756,70253,39680,70253,65871,647.0404857591911,467.7623213270621,1056.1557063139346
70253,16748,70253,39656,70253,65831,642.0735975859368,464.3642483080212,1048.9664167786002
70253,16738,70253,39640,70253,65830,637.0439294270636,460.93726454215107,1041.678940675115
70253,16761,70253,39692,70253,65870,631.9502054413379,457.4814270566449,1034.2932037894584
70263,16745,70263,39713,70263,65887,626.7910318122932,453.99577492592545,1026.8085967337452
70263,16746,70263,39724,70263,65851,621.5651436836891,450.4791117125777,1019.2247233465201
70263,16723,70263,39678,70263,65823,616.2715332508827,446.93078315751626,1011.5418717575154
70263,16733,70263,39648,70263,65791,610.9094104738457,443.3507924392576,1003.7607993287457
70263,16719,70263,39659,70263,65800,605.4781522658368,439.7392934930203,995.8821937028787
70263,16715,70263,39668,70263,65802,599.9773211278259,436.0961261698176,987.9063644320454
70274,16707,70274,39673,70274,65814,594.4066864619476,432.4208404737145,979.8333837238483
70274,16693,70274,39680,70274,65785,588.7661979807656,428.7130338171289,971.6634678447317
70274,16687,70274,39613,70274,65765,583.0559132393588,424.97257429918295,963.3971964494534
70274,16674,70274,39634,70274,65754,577.2758934545153,421.1993922923061,955.0353957812852
70274,16666,70274,39637,70274,65754,571.4260959381029,417.3930589018466,946.5789184460403
70274,16674,70274,39639,70274,65721,565.5063096849286,413.5526916338104,938.0285484089835
70284,16666,70284,39659,70284,65764,559.5162110137173,409.6772338283832,929.3850210638002
70284,16657,70284,39643,70284,65714,553.4555109305071,405.76582860943057,920.6491806022773
70284,16652,70284,39600,70284,65705,547.3240505350574,401.81802227009797,911.8221491826979
70284,16638,70284,39613,70284,65679,541.1218039992649,397.8335704612235,902.9052164469927
70284,16623,70284,39611,70284,65705,534.8488174497606,393.8120859946123,893.8995990998202
70284,16657,70284,39629,70284,65679,528.5051626762776,389.7529957471322,884.8064570325479
70294,16625,70294,39631,70294,65678,522.0910796986095,385.6558451263243,875.6271194010117
70294,16608,70294,39590,70294,65640,515.6071867606105,381.52062226825757,866.3631968164149
70294,16585,70294,39570,70294,65639,509.0543954923363,377.3477154467306,857.0164601996736
70294,16591,70294,39582,70294,65622,502.433585856655,373.13749559700705,847.5886380200909
70294,16604,70294,39564,70294,65593,495.74544761573725,368.88997320748996,838.0812633982787
70294,16588,70294,39580,70294,65621,488.9906562537948,364.6047542007402,828.4955730368658
70305,16578,70305,39595,70305,65598,482.17013643419045,360.281207781899,818.8325672041508
70305,16557,70305,39561,70305,65568,475.28511749914014,355.9187632896901,809.0932084622176
70305,16545,70305,39560,70305,65565,468.3369728813118,351.51708107586893,799.278439351881
70305,16533,70305,39539,70305,65561,461.32699111546276,347.07591731597745,789.3890372093985
70305,16552,70305,39587,70305,65560,454.2562443479393,342.59497012748693,779.425637967266
70305,16547,70305,39588,70305,65541,447.1257121482579,338.0741157904524,769.3889430725283
70315,16517,70315,39575,70315,65517,439.93655737210736,333.5139804334555,759.2798565285843
70315,16506,70315,39488,70315,65497,432.6901998862662,328.9161975677137,749.0993962034731
70315,16491,70315,39487,70315,65470,425.3881031160961,324.28283134987504,738.8484259148756
70315,16502,70315,39505,70315,65495,418.0315627572809,319.61542895464186,728.5274106263558
70315,16485,70315,39547,70315,65460,410.621706044304,314.9146936172827,718.1364112599395
70315,16487,70315,39542,70315,65477,403.15962665132315,310.18103530807053,707.6752846999033
70325,16460,70325,39490,70325,65466,395.64647911945167,305.4152664232859,697.1439291027891
70325,16456,70325,39474,70325,65420,388.08344372523845,300.61865322033333,686.5424854639866
70325,16445,70325,39475,70325,65419,380.4716103171711,295.7923917727434,675.8713092529892
70325,16444,70325,39490,70325,65416,372.81191059556556,290.9372126577229,665.1307586510202
70325,16443,70325,39533,70325,65423,365.1051756970538,286.05355955534515,654.3211960213234
70325,16429,70325,39504,70325,65388,357.3522805969177,281.14223042584746,643.4432572331962
70336,16421,70336,39459,70336,65354,349.5542639909339,276.2048923391343,632.497982051749
70336,16392,70336,39434,70336,65320,341.7123183885219,271.2438891160954,621.4865222447543
70336,16393,70336,39433,70336,65313,333.82764025982306,266.2615400504159,610.4095993849453
70336,16391,70336,39430,70336,65329,325.9012859017828,261.25959746487035,599.2671534789463
70336,16398,70336,39460,70336,65350,317.93422928057043,256.2391767065294,588.0585203560825
70336,16367,70336,39446,70336,65334,309.92758133572477,251.20107554981576,576.7830750736402
70346,16355,70346,39402,70346,65264,301.8826873869822,246.14611060130676,565.4407706578161
70346,16342,70346,39407,70346,65259,293.80098320230616,241.0750396227072,554.0320116181706
70346,16339,70346,39403,70346,65257,285.68380597959754,235.98820937879339,542.5571172182783
70346,16325,70346,39428,70346,65263,277.5323301841996,230.8854531272185,531.016105047182
70346,16328,70346,39431,70346,65251,269.34760188631424,225.76640570433472,519.4089587970507
70346,16303,70346,39409,70346,65244,261.130600724563,220.6309690750943,507.73601596774006
70356,16294,70356,39364,70356,65194,252.88224648343646,215.4794790855011,495.99816383437974
70356,16283,70356,39333,70356,65192,244.6033077494791,210.31229211988364,484.1967181864493
70356,16277,70356,39373,70356,65183,236.2943077263551,205.12910330540808,472.33316086584296
70356,16278,70356,39395,70356,65180,227.95553443614529,199.92873693530828,460.40908008728934
70356,16269,70356,39372,70356,65158,219.58716540266244,194.7096297039791,448.426339794285
70356,16259,70356,39374,70356,65118,211.18943192279198,189.47038550386662,436.3871744328178
70367,16241,70367,39340,70367,65091,202.76270553705092,184.2099120857838,424.29397027631353
70367,16219,70367,39330,70367,65094,194.3074338315124,178.92721854657714,412.1488546468663
70367,16220,70367,39342,70367,65100,185.82396602848291,173.62112664201402,399.9535098371766
70367,16233,70367,39364,70367,65085,177.31247476639976,168.29023189274255,387.7094039110941
70367,16213,70367,39363,70367,65070,168.77313999684236,162.93328855695222,375.418159045365
70367,16181,70367,39302,70367,65029,160.20636630596368,157.54963602541454,363.0816991554891
70377,16169,70377,39273,70377,64980,151.61268759204677,152.13905146280024,350.7020087755009
70377,16159,70377,39263,70377,65002,142.99245014856376,146.70100645471223,338.28061442846706
70377,16163,70377,39301,70377,64993,134.34562018813529,141.2340319246183,325.8182720891775
70377,16165,70377,39330,70377,65006,125.67186352391025,135.73582273997147,313.31519459724336
70377,16162,70377,39304,70377,64983,116.9708265728525,130.20396062734414,300.7715680452304
70377,16136,70377,39278,70377,64967,108.24242440593059,124.63651073309245,288.18795237761265
70387,16117,70387,39265,70387,64916,99.48690919149965,119.03200215820038,275.56534761991634
70387,16119,70387,39242,70387,64905,90.70471498037318,113.38903132353448,262.90489737875714
70387,16107,70387,39295,70387,64922,81.8963338077665,107.70598604693032,250.20753313246996
70387,16106,70387,39292,70387,64921,73.0623667772719,101.98125666845237,237.4740267481959
70387,16086,70387,39276,70387,64877,64.2036408243572,96.21383713122202,224.70540464101032
70387,16068,70387,39234,70387,64854,55.32123935450659,90.40368466096072,211.9031467796858
70398,16047,70398,39212,70398,64816,46.41637386964908,84.55145356363391,199.06891550772116
70398,16050,70398,39218,70398,64822,37.49017344484446,78.65791479337497,186.20412375425371
70398,16047,70398,39220,70398,64805,28.543598431300666,72.72360160410074,173.3097149413195
70398,16032,70398,39255,70398,64815,19.5775532218845,66.74894029552888,160.38626786418467
70398,16018,70398,39207,70398,64786,10.593019954476631,60.7347000870908,147.43428889241318
70398,15997,70398,39183,70398,64745,1.5910411011477663,54.68224605034902,134.45439599905467
70408,15991,70408,39166,70408,64760,-7.427420762263523,48.59325306129199,121.44721852808084
70408,15980,70408,39205,70408,64736,-16.461612479040127,42.469277375035745,108.41326563634448
70408,15988,70408,39214,70408,64761,-25.510993810757554,36.31183335681078,95.35308312836833
70408,15973,70408,39208,70408,64714,-34.57508661092663,30.12298340880693,82.26761770847679
70408,15959,70408,39152,70408,64679,-43.65328707372407,23.90580963485047,69.15841625704411
70408,15923,70408,39114,70408,64672,-52.744849523442895,17.664206598988017,56.02742331504646
70419,15920,70419,39104,70419,64628,-61.849116647402866,11.402088168091154,42.87659325822483
70419,15933,70419,39134,70419,64636,-70.96575537774697,5.122686261967942,29.707600413943055
70419,15904,70419,39135,70419,64600,-80.0947232217477,-1.1715000660184387,16.521683480740194
70419,15916,70419,39134,70419,64630,-89.2360743377177,-7.4782449610793265,3.319656569367453
70419,15897,70419,39129,70419,64594,-98.38980976085509,-13.795131529756418,-9.897866637860716
70419,15876,70419,39086,70419,64553,-107.55579202245474,-20.11937453013445,-23.130242065965604
70429,15869,70429,39061,70429,64545,-116.73377678595045,-26.448037330498778,-36.37689373069702
70429,15872,70429,39100,70429,64553,-125.92350282205234,-32.77847121238892,-49.63757358728594
70429,15857,70429,39119,70429,64548,-135.12464605970058,-39.10837404604706,-62.91229100702867
70429,15848,70429,39065,70429,64529,-144.33667617813057,-45.43531260180907,-76.20092404184334
70429,15823,70429,39049,70429,64473,-153.55880598674457,-51.756447235200994,-89.50297996650875
70429,15811,70429,39026,70429,64450,-162.79009635130717,-58.06888198684999,-102.81783093105628
70439,15806,70439,39035,70439,64435,-172.02962360564652,-64.37017675911193,-116.14525475283108
70439,15796,70439,39027,70439,64473,-181.27655972825391,-70.65856025443588,-129.48573042087082
70439,15794,70439,39065,70439,64451,-190.5301187729176,-76.93277899625855,-142.8401361990875
70439,15778,70439,39026,70439,64430,-199.7894444638007,-83.19169177603237,-156.2091559051346
70439,15750,70439,39002,70439,64370,-209.05356445756092,-89.43397182022318,-169.59303891591094
70439,15753,70439,38996,70439,64363,-218.32149427848947,-95.65824861009355,-182.99193447349217
70450,15743,70450,38996,70450,64391,-227.59235942146324,-101.86344048339686,-196.40631257395057
70450,15731,70450,38999,70450,64386,-236.86537578567754,-108.04884903540926,-209.83683801649318
70450,15728,70450,38999,70450,64344,-246.1397593031188,-114.21398702494992,-223.28381093558346
70450,15711,70450,38964,70450,64313,-255.41465788462813,-120.35838063502206,-236.7468942503151
70450,15684,70450,38956,70450,64262,-264.6891502371185,-126.48160109766991,-250.2254376605647
70450,15683,70450,38926,70450,64266,-273.9623743200382,-132.58356617548463,-263.7190845301143
70460,15676,70460,38950,70460,64275,-283.2336741707404,-138.66487271570554,-277.22815170278864
70460,15675,70460,38975,70460,64265,-292.50257692549064,-144.72681017706327,-290.7534787100358
70460,15660,70460,38945,70460,64245,-301.7686324425798,-150.7709458338487,-304.29598516725855
70460,15637,70460,38957,70460,64218,-311.0313057791203,-156.79866612922035,-317.8564017991141
70460,15622,70460,38893,70460,64211,-320.29005206042086,-162.81108292646343,-331.4352823326685
70460,15615,70460,38894,70460,64147,-329.544509005112,-168.80935723472214,-345.0331727969592
70470,15614,70470,38961,70470,64192,-338.79460880312615,-174.79505789169923,-358.6508552448854
70470,15610,70470,38938,70470,64197,-348.04050210569926,-180.76990960234832,-372.2893339964123
70470,15602,70470,38895,70470,64140,-357.28236091855365,-186.73513670828947,-385.94936808714124
70470,15577,70470,38865,70470,64100,-366.5202202745826,-192.69136997646967,-399.6311893955956
70470,15564,70470,38850,70470,64092,-375.75399427663,-198.63925600822654,-413.3348739129767
70470,15555,70470,38860,70470,64083,-384.983632111499,-204.58008118298721,-427.0608318922191
70481,15554,70481,38902,70481,64092,-394.2092258363991,-210.51588192261863,-440.8098684505967
70481,15548,70481,38911,70481,64087,-403.4309525684224,-216.44891171974086,-454.58284497511795
70481,15529,70481,38860,70481,64057,-412.648930004774,-222.38087568791673,-468.38022868423536
70481,15512,70481,38814,70481,64020,-421.863161337948,-228.31273193971901,-482.2018844813342
70481,15498,70481,38790,70481,63981,-431.0736403978941,-234.24533901528787,-496.0473074192055
70481,15481,70481,38817,70481,63983,-440.28053000545265,-240.18031388069062,-509.9161035323543
70491,15502,70491,38860,70491,63993,-449.48426176194846,-246.1202585973025,-523.808253601899
70491,15477,70491,38847,70491,63997,-458.685429780022,-252.0681633580566,-537.7238563140213
70491,15465,70491,38838,70491,63951,-467.8845876287078,-258.02660304898666,-551.6625956928735
70491,15444,70491,38778,70491,63919,-477.0822156108791,-263.99745174164116,-565.623509576689
70491,15436,70491,38771,70491,63893,-486.27887252680705,-269.98227491366436,-579.605271647692
70491,15439,70491,38810,70491,63873,-495.47531739850376,-275.9828994793305,-593.6066592106474
70501,15437,70501,38823,70501,63885,-504.6724412673783,-282.0014249457056,-607.6268222591832
70501,15420,70501,38813,70501,63874,-513.8710495209396,-288.0396068325533,-621.6651899534447
70501,15405,70501,38763,70501,63829,-523.0717072172283,-294.09834285849786,-635.7211825128607
70501,15391,70501,38743,70501,63825,-532.2747667869701,-300.17781836678523,-649.794123177358
70501,15378,70501,38747,70501,63780,-541.4804931042529,-306.2780843077876,-663.8834352603315
70501,15373,70501,38780,70501,63791,-550.6891665188787,-312.3993878022387,-677.9888814754161
70512,15365,70512,38744,70512,63802,-559.9011031340212,-318.5419537496231,-692.110584501824
70512,15375,70512,38758,70512,63801,-569.1165558981643,-324.70561615042857,-706.2486405988011
70512,15329,70512,38710,70512,63762,-578.3355531713214,-330.8897241219023,-720.4025367441764
70512,15324,70512,38689,70512,63720,-587.5578973722979,-337.0933873761304,-734.570913663445
70512,15310,70512,38688,70512,63707,-596.7833904931899,-343.3159498772867,-748.7518528631388
70512,15307,70512,38730,70512,63680,-606.0120294784699,-349.5572869618567,-762.9433254725607
70522,15312,70522,38747,70522,63704,-615.2439873197245,-355.8174685846599,-777.1434002392139
70522,15298,70522,38678,70522,63660,-624.4794243928027,-362.09605987978034,-791.350117657214
70522,15285,70522,38672,70522,63618,-633.7182838410188,-368.39190495660876,-805.5613459984509
70522,15255,70522,38672,70522,63603,-642.9602571880494,-374.7035477536141,-819.7750078706035
70522,15251,70522,38692,70522,63629,-652.2049606616924,-381.02954526050223,-833.9894284591935
70522,15253,70522,38682,70522,63615,-661.4521259411313,-387.36827043745734,-848.2032267433765
70532,15257,70532,38654,70532,63600,-670.7015584498931,-393.7175752222205,-862.4148124835428
70532,15223,70532,38658,70532,63557,-679.9529077299878,-400.0747244980439,-876.6220475827504
70532,15202,70532,38597,70532,63530,-689.2055939414256,-406.4366233572281,-890.8223552048171
70532,15193,70532,38584,70532,63502,-698.4590382345355,-412.8002912030354,-905.0131310166055
70532,15185,70532,38598,70532,63480,-707.7129400043855,-419.1634593397413,-919.1921854625127
70532,15189,70532,38653,70532,63514,-716.9673480831441,-425.52474574102166,-933.3579641921121
70543,15186,70543,38629,70543,63485,-726.2225137411842,-431.883073159235,-947.5093463687022
70543,15167,70543,38613,70543,63467,-735.4786550192382,-438.2368972699478,-961.6452050763642
70543,15154,70543,38551,70543,63422,-744.7358246434369,-444.58403616997475,-975.7642337777734
70543,15146,70543,38560,70543,63434,-753.993946281211,-450.92218830414936,-989.8651400541394
70543,15156,70543,38588,70543,63427,-763.2528451016055,-457.24949130097457,-1003.9467837192874
70543,15136,70543,38582,70543,63406,-772.5121168211122,-463.5644903901831,-1018.0080023436803
70553,15113,70553,38580,70553,63355,-781.7709748825682,-469.86566217277596,-1032.0474358853317
70553,15093,70553,38495,70553,63333,-791.0283247024549,-476.1511899551249,-1046.0637450968045
70553,15085,70553,38536,70553,63310,-800.2830326357277,-482.41934485112733,-1060.0561144752783
70553,15069,70553,38492,70553,63318,-809.5341630386633,-488.6690639200307,-1074.0246208909653
70553,15080,70553,38546,70553,63329,-818.7810620445173,-494.90015268131424,-1087.9701846023322
70553,15071,70553,38549,70553,63345,-828.0232577293934,-501.11297847620244,-1101.8940601648912
70563,15081,70563,38548,70563,63297,-837.2601969321961,-507.3078287284377,-1115.7971323237834
70563,15036,70563,38492,70563,63251,-846.4909806484234,-513.4844116996078,-1129.6795794565348
70563,15024,70563,38493,70563,63249,-855.7143550343046,-519.6419510264818,-1143.541163583109
70563,15022,70563,38482,70563,63213,-864.9289701965877,-525.7796473960939,-1157.3817179140506
70563,15014,70563,38494,70563,63239,-874.1335769446348,-531.8969528845035,-1171.2013644668762
70563,15004,70563,38484,70563,63209,-883.3269996528988,-537.9935001344215,-1185.0003970004939
70574,14981,70574,38476,70574,63164,-892.5080775302247,-544.0689090005772,-1198.7790822344093
70574,14974,70574,38439,70574,63139,-901.6757321876146,-550.1227418568735,-1212.5377901640447
70574,14968,70574,38410,70574,63121,-910.8290907149496,-556.154785666865,-1226.2774595387432
70574,14964,70574,38430,70574,63145,-919.9675125255599,-562.1655515497469,-1239.9999148232919
70574,14955,70574,38448,70574,63133,-929.0904957155412,-568.15651627303,-1253.707700702628
70574,14943,70574,38471,70574,63137,-938.1975661725626,-574.1297697191529,-1267.4035696667931
70584,14922,70584,38416,70584,63089,-947.2882526645087,-580.0873920791472,-1281.090029372305
70584,14912,70584,38426,70584,63055,-956.3621863775941,-586.0311880661145,-1294.769295756882
70584,14902,70584,38392,70584,63050,-965.4192561150192,-591.9628954627916,-1308.4436498090477
70584,14908,70584,38444,70584,63051,-974.4596775097828,-597.8844085632142,-1322.1157668715612
70584,14896,70584,38440,70584,63039,-983.4838993566634,-603.7975854021226,-1335.7886642570963
70584,14876,70584,38403,70584,63027,-992.4924563411898,-609.703756091152,-1349.4654188731392
70594,14869,70594,38363,70594,62988,-1001.4859502899133,-615.6035777732302,-1363.1489907033633
70594,14850,70594,38322,70594,62956,-1010.4651619518881,-621.497596376022,-1376.8423443053941
70594,14837,70594,38362,70594,62960,-1019.4311921079563,-627.3870699215753,-1390.5487953792187
70594,14842,70594,38379,70594,62953,-1028.3855753196897,-633.2742863799153,-1404.272222090424
70594,14850,70594,38392,70594,62967,-1037.330240813866,-639.1621068703402,-1418.0168840322178
70594,14833,70594,38356,70594,62930,-1046.267257721635,-645.053266379955,-1431.7870025098546
70605,14813,70605,38337,70605,62877,-1055.1985953190456,-650.9501078371229,-1445.5865472361374
70605,14795,70605,38318,70605,62879,-1064.1261471242447,-656.8548526665845,-1459.4195126277934
70605,14784,70605,38358,70605,62854,-1073.0519580788518,-662.7699503913342,-1473.2903678768846
70605,14802,70605,38369,70605,62891,-1081.978387622468,-668.6979709240106,-1487.2041646209032
70605,14782,70605,38342,70605,62887,-1090.908020389728,-674.6410576859332,-1501.166140173288
70605,14776,70605,38313,70605,62857,-1099.8434438560869,-680.6005668055394,-1515.1810590062896
70615,14747,70615,38244,70615,62782,-1108.7871721259123,-686.5773800472168,-1529.252905513686
70615,14740,70615,38253,70615,62781,-1117.741790659863,-692.5727740486437,-1543.3853124121351
70615,14737,70615,38268,70615,62788,-1126.710157940337,-698.5892245491007,-1557.582212652338
70615,14753,70615,38307,70615,62785,-1135.6954272171456,-704.6304939235984,-1571.8479639223865
70615,14740,70615,38313,70615,62776,-1144.7007931287976,-710.7009675403781,-1586.1869597837815
70615,14723,70615,38290,70615,62759,-1153.7291735688607,-716.8048176113848,-1600.6032109745165
70625,14692,70625,38240,70625,62716,-1162.7831423990858,-722.9456500891314,-1615.1001800662405
70625,14679,70625,38241,70625,62694,-1171.8651837476964,-729.1268368523745,-1629.680948276454
70625,14685,70625,38251,70625,62706,-1180.9780229394428,-735.3520453478877,-1644.3485342153801
70625,14691,70625,38282,70625,62692,-1190.1247061337583,-741.6253098922176,-1659.1059597254127
70625,14680,70625,38292,70625,62663,-1199.308365848713,-747.9505069033204,-1673.9560242677394
70625,14664,70625,38225,70625,62623,-1208.5319434541157,-754.3307236777486,-1688.90121881436
70636,14647,70636,38193,70636,62588,-1217.7981215016835,-760.7682450855008,-1703.9440402173198
70636,14622,70636,38187,70636,62597,-1227.1094779421405,-767.2652653403534,-1719.0874813418818
70636,14625,70636,38238,70636,62622,-1236.468734648405,-773.8245132568247,-1734.335188928518
70636,14629,70636,38223,70636,62607,-1245.8788917176319,-780.4491048784757,-1749.691017911383
70636,14622,70636,38260,70636,62542,-1255.3431017568341,-787.1418500477919,-1765.158447537153
70636,14605,70636,38192,70636,62546,-1264.8644297651904,-793.9046361298767,-1780.7405269941178
70646,14572,70646,38163,70646,62505,-1274.4457939771062,-800.7383684281285,-1796.4402492575302
70646,14587,70646,38175,70646,62516,-1284.090146256564,-807.6434975883104,-1812.260828910138
70646,14587,70646,38160,70646,62530,-1293.8005904149875,-814.6205389858859,-1828.2056389711158
70646,14575,70646,38191,70646,62508,-1303.5802117017176,-821.6701145754394,-1844.2777863962046
70646,14562,70646,38176,70646,62465,-1313.4318298594508,-828.7926305135024,-1860.4796519652782
70646,14532,70646,38125,70646,62431,-1323.357963015847,-835.9879750445156,-1876.8128862268745
70657,14517,70657,38124,70657,62417,-1333.3610367247009,-843.2556454309029,-1893.278829045601
70657,14521,70657,38126,70657,62423,-1343.4436701054615,-850.5951784601099,-1909.878856887385
70657,14545,70657,38155,70657,62419,-1353.608723301208,-858.0062774280914,-1926.6143117425356
70657,14526,70657,38153,70657,62406,-1363.8589503453604,-865.4884130056239,-1943.4861027117813
70657,14503,70657,38110,70657,62357,-1374.196579119783,-873.0403027451277,-1960.4943687716284
70657,14488,70657,38068,70657,62353,-1384.623227110836,-880.6598702943809,-1977.6384880390865
70667,14464,70667,38076,70667,62317,-1395.1401245614961,-888.3447875689047,-1994.9173141343965
70667,14484,70667,38106,70667,62326,-1405.7483414087071,-896.0929483098535,-2012.3293401518656
70667,14465,70667,38119,70667,62326,-1416.4487872609602,-903.9022639610753,-2029.8726101652926
70667,14454,70667,38103,70667,62283,-1427.2420309271063,-911.7699802605824,-2047.5444086752375
70667,14442,70667,38036,70667,62238,-1438.1281904095947,-919.692257324839,-2065.3411085244397
70667,14414,70667,38016,70667,62219,-1449.1069904836481,-927.6645111533876,-2083.2584829519396
70677,14416,70677,37984,70677,62211,-1460.1779129809292,-935.6822859710921,-2101.292172273416
70677,14413,70677,38042,70677,62213,-1471.3402981252088,-943.7419411518335,-2119.437825700083
70677,14414,70677,38044,70677,62233,-1482.5932431339038,-951.8405902676778,-2137.690782848272
70677,14397,70677,38026,70677,62211,-1493.9353527486041,-959.975442136916,-2156.0454286509257
70677,14364,70677,38018,70677,62154,-1505.3645967145078,-968.1432583427908,-2174.4946346687466
70677,14354,70677,37996,70677,62118,-1516.8784442472918,-976.3402713518389,-2193.029782799883
70688,14345,70688,37983,70688,62118,-1528.4741399627542,-984.5623508494671,-2211.6412724577476
70688,14360,70688,38027,70688,62125,-1540.1488076725254,-992.8051108095902,-2230.3188335477066
70688,14356,70688,38008,70688,62115,-1551.8992303553546,-1001.0636660168943,-2249.0512792586806
70688,14330,70688,37970,70688,62069,-1563.721480438844,-1009.3322000843881,-2267.8260491069977
70688,14299,70688,37948,70688,62028,-1575.610770839049,-1017.6039401001016,-2286.629109239331
70688,14292,70688,37928,70688,62006,-1587.561668546297,-1025.8716230872822,-2305.4453338490976
70698,14293,70698,37921,70698,62020,-1599.5683734238025,-1034.1280072514019,-2324.258924963372
70698,14261,70698,37961,70698,62003,-1611.6247912136037,-1042.3660680216035,-2343.053405631488
70698,14286,70698,37964,70698,62002,-1623.7244758127583,-1050.5786828185742,-2361.811231548091
70698,14266,70698,37926,70698,61964,-1635.8604875624019,-1058.7580192937635,-2380.5133960353533
70698,14242,70698,37900,70698,61924,-1648.0251819257642,-1066.8952748652753,-2399.1393244188284
70698,14238,70698,37895,70698,61904,-1660.210141271142,-1074.9809802969708,-2417.6671292432147
70708,14227,70708,37908,70708,61924,-1672.4062560785032,-1083.005359650766,-2436.0739173628185
70708,14228,70708,37929,70708,61907,-1684.6037190665986,-1090.9582612240974,-2454.335700347254
70708,14222,70708,37900,70708,61863,-1696.791867775878,-1098.8287144294118,-2472.4270202481302
70708,14187,70708,37866,70708,61847,-1708.959013537883,-1106.6046188771443,-2490.3208277896697
70708,14174,70708,37848,70708,61798,-1721.092463595473,-1114.2729505253956,-2507.9887534437175
70708,14156,70708,37829,70708,61815,-1733.1787610350125,-1121.8202930324596,-2525.4014727515623
70719,14172,70719,37867,70719,61814,-1745.2038798546077,-1129.2332130832147,-2542.5288106316884
70719,14163,70719,37872,70719,61805,-1757.1531388260905,-1136.4981381111809,-2559.3394257472482
70719,14149,70719,37879,70719,61772,-1769.0109135289824,-1143.6007854212223,-2575.8003693508545
70719,14135,70719,37830,70719,61734,-1780.7604303531534,-1150.5256349209096,-2591.8769688887705
70719,14121,70719,37812,70719,61725,-1792.3837583286308,-1157.255925548136,-2607.533098142453
70719,14132,70719,37818,70719,61718,-1803.8618455223661,-1163.7740888774238,-2622.7314930180137
70729,14122,70729,37843,70729,61728,-1815.1744103518147,-1170.0620295185245,-2637.4337680924336
70729,14120,70729,37832,70729,61699,-1826.299688431812,-1176.1009027695172,-2651.600141191903
70729,14085,70729,37790,70729,61666,-1837.21424000738,-1181.870766522005,-2665.189217347824
70729,14076,70729,37767,70729,61635,-1847.8930008112336,-1187.3506888356792,-2678.158151140793
70729,14047,70729,37734,70729,61589,-1858.3095487698888,-1192.519360394028,-2690.463172578111
70729,14058,70729,37728,70729,61624,-1868.4363951113064,-1197.3558360987904,-2702.0601783725933
70739,14054,70739,37781,70739,61615,-1878.2450902571459,-1201.8399794787233,-2712.9049529074005
70739,14036,70739,37792,70739,61647,-1887.7061130060342,-1205.9522402441444,-2722.9528199617744
70739,14031,70739,37783,70739,61581,-1896.7887564169096,-1209.6729093247582,-2732.158094945584
70739,14008,70739,37739,70739,61561,-1905.4611671724494,-1212.9815967568034,-2740.4739583480905
70739,13998,70739,37718,70739,61546,-1913.6905029865663,-1215.8574228010857,-2747.852921869625
70739,13999,70739,37739,70739,61557,-1921.4431180151519,-1218.2796234390705,-2754.2473828153366
70750,14009,70750,37761,70750,61554,-1928.6846174547195,-1220.2278727340347,-2759.60979270541
70750,13993,70750,37758,70750,61542,-1935.3797055135692,-1221.6820373805585,-2763.8925407980996
70750,13957,70750,37738,70750,61485,-1941.4920767837266,-1222.6217850327946,-2767.0479851115133
70750,13951,70750,37664,70750,61462,-1946.9846476155667,-1223.0266663211637,-2769.028984605787
70750,13950,70750,37690,70750,61456,-1951.819989027846,-1222.876855369636,-2769.78980656163
70750,13958,70750,37710,70750,61501,-1955.9605717684867,-1222.1539544927703,-2769.286801528071
70760,13945,70760,37770,70760,61498,-1959.3687397348342,-1220.841042076152,-2767.478412208159
70760,13939,70760,37726,70760,61520,-1962.0066517621458,-1218.9219986355736,-2764.3247362512443
70760,13927,70760,37718,70760,61454,-1963.8363751299134,-1216.3809818043774,-2759.7872433156017
70760,13926,70760,37675,70760,61472,-1964.820097602776,-1213.2026518168577,-2753.8290605285783
70760,13917,70760,37711,70760,61489,-1964.9203519704943,-1209.3728646762552,-2746.415588784879
70760,13929,70760,37739,70760,61509,-1964.1001915685538,-1204.8791069810372,-2737.51480954771
70770,13926,70770,37773,70770,61529,-1962.3232754877708,-1199.7102559749683,-2727.0971254138403
70770,13918,70770,37722,70770,61506,-1959.553903113653,-1193.856013304553,-2715.1351381930617
70770,13907,70770,37716,70770,61489,-1955.7571549923528,-1187.3067899527064,-2701.6037904362056
70770,13897,70770,37704,70770,61498,-1950.8992281914975,-1180.054261241181,-2686.4809724754205
70770,13913,70770,37752,70770,61515,-1944.9478519253407,-1172.0920012793847,-2669.7482294822744
70770,13928,70770,37719,70770,61562,-1937.8725518013036,-1163.4156992848862,-2651.3911179558722
70781,13939,70781,37810,70781,61595,-1929.644648372544,-1154.0230328545144,-2631.3990806857273
70781,13932,70781,37755,70781,61619,-1920.2371609693596,-1143.9133662921704,-2609.7650248097348
70781,13933,70781,37769,70781,61605,-1909.6248828396435,-1133.0875432229675,-2586.485014120995
70781,13949,70781,37768,70781,61615,-1897.7846527499655,-1121.5481074257914,-2561.5584360705557
70781,13953,70781,37808,70781,61647,-1884.6956255308473,-1109.2996786502413,-2534.9885464461995
70781,13983,70781,37839,70781,61696,-1870.3394168367604,-1096.3489571636478,-2506.7828898528264
70791,13995,70791,37851,70791,61757,-1854.7001227879457,-1082.7043467567719,-2476.953227561116
70791,14001,70791,37837,70791,61737,-1837.7642899603688,-1068.3756149006376,-2445.5151525835204
70791,14010,70791,37829,70791,61749,-1819.521002177273,-1053.3739945253412,-2412.4880209674043
70791,14031,70791,37860,70791,61802,-1799.9621270284347,-1037.7126684120562,-2377.895445685736
70791,14051,70791,37904,70791,61873,-1779.0825585407254,-1021.4071096605087,-2341.7657170400657
70791,14086,70791,37941,70791,61943,-1756.8803226889386,-1004.4748831739364,-2304.1315376382536
70801,14105,70801,37972,70801,61946,-1733.3565459044216,-986.9350513430113,-2265.029336132256
70801,14122,70801,37971,70801,62007,-1708.5154019907732,-968.8076144150552,-2224.4988386246614
70801,14143,70801,37976,70801,62051,-1682.364185135081,-950.1133208712885,-2182.5830382221
70801,14175,70801,38021,70801,62097,-1654.913494706044,-930.8738188321686,-2139.3281850329
70801,14223,70801,38081,70801,62158,-1626.1773413652102,-911.1116702188406,-2094.7836474780684
70801,14250,70801,38083,70801,62236,-1596.1730466465283,-890.8499092441626,-2049.001657577653
70812,14300,70812,38066,70812,62262,-1564.9210164936712,-870.1116079343171,-2002.0369021829222
70812,14304,70812,38085,70812,62308,-1532.4445662770352,-848.9200408833029,-1953.9462033288964
70812,14331,70812,38108,70812,62355,-1498.7699706642252,-827.299235997756,-1904.7885368721143
70812,14388,70812,38145,70812,62470,-1463.926721391662,-805.2743134732608,-1854.6250860325322
70812,14438,70812,38214,70812,62496,-1427.9476419747764,-782.8713592515934,-1803.5188908002674
70812,14492,70812,38215,70812,62562,-1390.868631738081,-760.1169151153222,-1751.5342956164886
70822,14520,70822,38259,70822,62641,-1352.7282627304107,-737.0374346801086,-1698.7366061222622
70822,14562,70822,38229,70822,62680,-1313.567542036202,-713.6590909570914,-1645.1918476558808
70822,14609,70822,38283,70822,62744,-1273.4298827518876,-690.0079872440796,-1590.9665221929495
70822,14662,70822,38317,70822,62817,-1232.3610880171561,-666.11042646101,-1536.1274688422022
70822,14718,70822,38348,70822,62901,-1190.4091908630558,-641.9928495245923,-1480.7416456268443
70822,14776,70822,38358,70822,62936,-1147.6241544600034,-617.6815613058344,-1424.875710982214
70832,14812,70832,38391,70832,62994,-1104.057534416548,-593.2026156756997,-1368.595716473023
70832,14855,70832,38401,70832,63044,-1059.7622714999895,-568.5818871166317,-1311.967133197597
70832,14911,70832,38424,70832,63129,-1014.7926717925498,-543.8452046046774,-1255.054981051835
70832,14964,70832,38456,70832,63198,-969.2044005466208,-519.018502396561,-1197.9237288569493
70832,15028,70832,38512,70832,63278,-923.0543301241172,-494.12783510055505,-1140.636904549906
70832,15085,70832,38535,70832,63336,-876.4002503305923,-469.1991003615938,-1083.2565954785691
70843,15142,70843,38550,70843,63363,-829.3005182237712,-444.25765652145185,-1025.8431200606356
70843,15183,70843,38543,70843,63438,-781.8137588503903,-419.3282391575818,-968.4550671142968
70843,15245,70843,38612,70843,63515,-733.9987020377572,-394.43521817422686,-911.1494762651062
70843,15308,70843,38677,70843,63590,-685.9140683408405,-369.6026462124005,-853.9817183753667
70843,15377,70843,38738,70843,63671,-637.61832010365,-344.8536179667408,-797.0050275951644
70843,15430,70843,38705,70843,63707,-589.1692554923607,-320.2093281870176,-740.2699827475228
70853,15460,70853,38705,70853,63724,-540.6236621655564,-295.688748412261,-683.8243248727222
70853,15520,70853,38693,70853,63791,-492.03724524372205,-271.30923947310396,-627.7133217753997
70853,15580,70853,38756,70853,63872,-443.46471238100276,-247.08747380923228,-571.9802732713172
70853,15645,70853,38786,70853,63937,-394.95970449931065,-223.03988182318847,-516.6665627042269
70853,15701,70853,38829,70853,64020,-346.5745076712717,-199.18245375152117,-461.81125331918633
70853,15743,70853,38876,70853,64064,-298.35974273447096,-175.53024054915636,-407.4505843200743
70863,15801,70863,38842,70863,64093,-250.36420093164088,-152.09693777630832,-353.61768104143243
70863,15837,70863,38876,70863,64147,-202.63482190838158,-128.89489400843456,-300.3426804256901
70863,15912,70863,38910,70863,64210,-155.2167011767499,-105.93548665721005,-247.6530804920394
70863,15961,70863,38985,70863,64270,-108.15299195195462,-83.22922934889687,-195.57390199306496
70863,16013,70863,38982,70863,64341,-61.48467358694484,-60.785310977293534,-144.12755207532155
70863,16047,70863,38974,70863,64350,-15.2503653125666,-38.61113273025444,-93.33361780343398
70874,16097,70874,38984,70874,64370,30.51366427131643,-16.712455977310356,-43.208991531826996
70874,16130,70874,38977,70874,64445,75.77334987647691,4.905960650881866,6.231555148318876
70874,16191,70874,39020,70874,64506,120.49667103354705,26.239716834151864,54.97488978277852
70874,16247,70874,39069,70874,64578,164.65361305686156,47.28448119758946,103.0095997447163
70874,16295,70874,39097,70874,64606,208.21632338981476,68.03622310526646,150.32639283231083
70874,16323,70874,39104,70874,64642,251.1593125307279,88.49168445940575,196.91831222148357
70884,16355,70884,39088,70884,64673,293.4594393885411,108.64853916144455,242.7805556169851
70884,16400,70884,39107,70884,64713,335.0956576178594,128.505033925215,287.910058713328
70884,16462,70884,39199,70884,64771,376.0487928477164,148.05957800334556,332.30512645707176
70884,16502,70884,39202,70884,64835,416.3015842233549,167.31094971738673,375.9653307866047
70884,16534,70884,39191,70884,64842,455.83887351483554,186.25888711856555,418.89164658457094
70884,16566,70884,39174,70884,64864,494.6476489196334,204.90414405257593,461.0864170776081
70895,16603,70895,39191,70895,64895,532.7168813228434,223.2478335549731,502.5528754631887
70895,16637,70895,39223,70895,64972,570.0373092724578,241.29072031898374,543.2945889962912
70895,16681,70895,39264,70895,65032,606.6012883896515,259.03299849727296,583.3153799457605
70895,16736,70895,39307,70895,65082,642.4027723068536,276.4746013664377,622.6197739094598
70895,16742,70895,39300,70895,65119,677.4374152711193,293.6157352446886,661.2135483663342
70895,16771,70895,39306,70895,65099,711.702557818139,310.4571722091533,699.1039178926283
70905,16817,70905,39320,70905,65138,745.1969722201038,327.00010125951087,736.2991271843364
70905,16848,70905,39376,70905,65209,777.9206450530501,343.2458961053377,772.8077916515804
70905,16902,70905,39423,70905,65256,809.8748033528991,359.1963155916253,808.6386997063928
70905,16918,70905,39407,70905,65275,841.0620771118295,374.8541144585171,843.8011371898817
70905,16942,70905,39378,70905,65282,871.4865876156432,390.22337429021843,878.3050698845627
70905,16965,70905,39373,70905,65318,901.1538178604321,405.309034471425,912.1608397892671
70915,16990,70915,39404,70915,65337,930.0703398022242,420.11601360593,945.3786622150365
70915,17031,70915,39406,70915,65411,958.2435905261475,434.6486315762181,977.9683159840322
70915,17060,70915,39493,70915,65431,985.6818104611552,448.9105830377582,1009.9391943834248
70915,17086,70915,39488,70915,65499,1012.3941110290657,462.9054095969823,1041.300625500523
70915,17097,70915,39471,70915,65508,1038.3904994529325,476.63708199882785,1072.0622370086726
70915,17119,70915,39468,70915,65502,1063.6817268726168,490.11003450097735,1102.2340898827379
70926,17139,70926,39495,70926,65538,1088.2790140935595,503.32866345208777,1131.826358132938
70926,17175,70926,39539,70926,65601,1112.1938226001557,516.2969982392713,1160.848859825653
70926,17204,70926,39560,70926,65635,1135.437797974801,529.0189249283535,1189.3110360718447
70926,17205,70926,39528,70926,65651,1158.0228226252216,541.4986022480273,1217.2223149407819
70926,17239,70926,39526,70926,65644,1179.9609710317895,553.7404363706007,1244.5922528862134
70926,17250,70926,39533,70926,65657,1201.2643428536894,565.7485293638078,1271.4301498319346
70936,17261,70936,39567,70936,65707,1221.9448908878685,577.5261516315538,1297.7444351074732
70936,17297,70936,39596,70936,65782,1242.0142515937423,589.0756753435917,1323.5424411822105
70936,17334,70936,39646,70936,65807,1261.4836810155057,600.398978871933,1348.8308603987489
70936,17342,70936,39598,70936,65802,1280.3642171556244,611.4980064572783,1373.6163967579173
70936,17345,70936,39619,70936,65813,1298.6668316661512,622.3749508056062,1397.9058941229537
70936,17357,70936,39607,70936,65807,1316.4022851628974,633.0319047520074,1421.705857661524
70946,17397,70946,39628,70946,65866,1333.5808375942383,643.470406907973,1445.021835796118
70946,17418,70946,39687,70946,65909,1350.2121755705352,653.6912981188534,1467.8581744690746
70946,17445,70946,39700,70946,65943,1366.3056190648763,663.6950728449531,1490.2183236648184
70946,17445,70946,39666,70946,65944,1381.87035421179,673.4824320005155,1512.1053176207242
70946,17456,70946,39648,70946,65977,1396.9154632268323,683.0543107201222,1533.5219611404946
70946,17477,70946,39660,70946,65960,1411.449763297736,692.4112373502683,1554.4706834675594
70957,17485,70957,39706,70957,65988,1425.481644390476,701.5527319465991,1574.9531972507507
70957,17508,70957,39747,70957,66053,1439.019004855214,710.4773756683794,1594.9701972877338
70957,17526,70957,39764,70957,66053,1452.0692602835134,719.1834863303882,1614.5214491049064
70957,17531,70957,39731,70957,66073,1464.6393990591464,727.6697808975748,1633.60611962848
70957,17541,70957,39743,70957,66070,1476.7359933010844,735.9354684516825,1652.2228399840092
70957,17546,70957,39695,70957,66093,1488.3650880776308,743.9797817686112,1670.3694417719007
70967,17576,70967,39783,70967,66154,1499.5320617772695,751.8013988290083,1688.0427473318468
70967,17588,70967,39782,70967,66206,1510.241621368672,759.3983270082783,1705.2388350089795
70967,17590,70967,39801,70967,66159,1520.497920239597,766.768371416362,1721.9536722716493
70967,17594,70967,39763,70967,66156,1530.3045880010854,773.9095560525798,1738.1833032778936
70967,17608,70967,39774,70967,66176,1539.6645952271265,780.8199878699093,1753.923257114588
70967,17625,70967,39788,70967,66221,1548.5801270586776,787.4974208290362,1769.1679236019309
70977,17635,70977,39805,70977,66249,1557.052599147974,793.9390320106927,1783.9105484583743
70977,17663,70977,39841,70977,66294,1565.0827895695666,800.1415859285128,1798.1437205224934
70977,17665,70977,39853,70977,66274,1572.6710380868171,806.101871783279,1811.8599242488576
70977,17649,70977,39788,70977,66275,1579.8173812100808,811.8170596117941,1825.051744881242
70977,17673,70977,39788,70977,66309,1586.5214530477215,817.2844411740057,1837.71164155539
70977,17688,70977,39862,70977,66325,1592.7823138519325,822.5007641190919,1849.8317317734445
70988,17703,70988,39903,70988,66353,1598.5985078109711,827.4622240002293,1861.4039112979003
70988,17713,70988,39885,70988,66344,1603.9683035772764,832.1653469724379,1872.420105331511
70988,17707,70988,39844,70988,66366,1608.889884853842,836.6076866756146,1882.8723679306504
70988,17717,70988,39828,70988,66343,1613.361379793179,840.7875603285088,1892.7527712310712
70988,17725,70988,39828,70988,66381,1617.3807960542094,844.7032045766705,1902.0531737959614
70988,17739,70988,39880,70988,66447,1620.946021456231,848.3521727889438,1910.7651880982921
70998,17748,70998,39915,70998,66422,1624.0549510101516,851.731477774641,1918.880648940603
70998,17761,70998,39922,70998,66444,1626.7056857581333,854.838360602648,1926.3922026265418
70998,17751,70998,39884,70998,66425,1628.896716471756,857.6709975506767,1933.2934586037763
70998,17740,70998,39859,70998,66427,1630.626954660003,860.2285057751026,1939.5787625078483
70998,17747,70998,39887,70998,66416,1631.895550228646,862.5103631143663,1945.2428316448622
70998,17751,70998,39900,70998,66481,1632.7016739194944,864.5159726234804,1950.2804777393212
71007,17782,71007,39915,71007,66524,1633.044509432835,866.2447766071768,1954.68685020155
71007,17767,71007,39935,71007,66484,1632.9234937146257,867.696679351033,1958.4582142509103
71007,17764,71007,39894,71007,66481,1632.338564614289,868.8724062032413,1961.5924748010302
71007,17761,71007,39868,71007,66459,1631.290175110691,869.7734549771751,1964.0889504182014
71007,17766,71007,39899,71007,66474,1629.7791672022956,870.4015971569877,1965.947822408205
71007,17768,71007,39908,71007,66519,1627.806724012652,870.7585036000771,1967.169866178997
71018,17783,71018,39949,71018,66522,1625.3744607996064,870.8459560919148,1967.75673201273
71018,17779,71018,39920,71018,66509,1622.4846265002154,870.6664099486331,1967.7114999990117
71018,17762,71018,39885,71018,66509,1619.140290289789,870.2233126341716,1967.0389606491867
71018,17763,71018,39889,71018,66501,1615.345343091651,869.5208261853011,1965.7455320496215
71018,17765,71018,39901,71018,66520,1611.1043766763896,868.5633155826542,1963.8391311271102
71018,17791,71018,39946,71018,66520,1606.4227093824666,867.3552606469848,1961.329221433044
71028,17765,71028,39943,71028,66506,1601.3066473552221,865.9017471483234,1958.2269886258086
71028,17755,71028,39913,71028,66482,1595.763707931174,864.2090674778599,1954.5453741940896
71028,17745,71028,39852,71028,66480,1589.8025519998196,862.2847487223974,1950.2988233807164
71028,17727,71028,39857,71028,66468,1583.4327364073765,860.1368217584551,1945.5029371249411
71028,17729,71028,39880,71028,66461,1576.664480404528,857.7729766976885,1940.1742299359194
71028,17739,71028,39922,71028,66483,1569.5085591625605,855.2004058255991,1934.3300417698424
71038,17730,71038,39916,71038,66457,1561.9764150983106,852.4264005713316,1927.9886296898494
71038,17718,71038,39888,71038,66450,1554.0803652375469,849.4590324221589,1921.1692991149112
71038,17704,71038,39847,71038,66430,1545.8336674722889,846.3072436441503,1913.8923413424818
71038,17694,71038,39877,71038,66424,1537.25041698288,842.980365761378,1906.1788111283895
71038,17691,71038,39902,71038,66448,1528.345414058741,839.4877758335748,1898.0503925898117
71038,17679,71038,39893,71038,66452,1519.1341080986333,835.8391617602252,1889.5295854818316
71049,17672,71049,39882,71049,66429,1509.6326031483054,832.0450016828153,1880.6401403167324
71049,17652,71049,39810,71049,66399,1499.8576435293546,828.1165994617187,1871.407302450513
71049,17623,71049,39807,71049,66364,1489.826487973509,824.0654613771053,1861.8575729542945
71049,17643,71049,39807,71049,66347,1479.5566838664533,819.9024164163566,1852.0181331907193
71049,17614,71049,39867,71049,66342,1469.0659434183258,815.6372265377092,1841.9162783036734
71049,17617,71049,39873,71049,66356,1458.3721920262287,811.279048810248,1831.5791602854827
71059,17600,71059,39839,71059,66310,1447.4936263599752,806.8372755615238,1821.0338539109491
71059,17576,71059,39818,71059,66300,1436.44869457219,802.3219164345272,1810.3073824188286
71059,17572,71059,39813,71059,66266,1425.2559838796944,797.7433196749525,1799.4264430322783
71059,17558,71059,39811,71059,66276,1413.934073609525,793.1117564694684,1788.4170237029964
71059,17556,71059,39843,71059,66298,1402.5014826287477,788.4373192937671,1777.3042846085639
71059,17542,71059,39851,71059,66272,1390.9767206772276,783.730241197136,1766.1128573680378
71069,17511,71069,39814,71069,66253,1379.3783175346355,779.0014009430089,1754.8672272477947
71069,17494,71069,39741,71069,66200,1367.7246776454988,774.2623822718766,1743.591709844138
71069,17482,71069,39725,71069,66176,1356.0337818665723,769.5246862410737,1732.3099344336267
71069,17466,71069,39765,71069,66205,1344.3229320457972,764.7986689882885,1721.0442177183088
71069,17484,71069,39776,71069,66207,1332.6086734440298,760.0931840371181,1709.815403968644
71069,17457,71069,39781,71069,66170,1320.9069227734017,755.4160461907886,1698.6432173917597
71080,17456,71080,39752,71080,66152,1309.233175845846,750.7745942587592,1687.5464966748439
71080,17423,71080,39737,71080,66158,1297.6025818251014,746.1758120263424,1676.54304595832
71080,17403,71080,39712,71080,66151,1286.0298046556686,741.6260213944219,1665.6495124450314
71080,17425,71080,39766,71080,66152,1274.5288047455556,737.1305360200046,1654.8815389883898
71080,17408,71080,39762,71080,66138,1263.1128318454657,732.6937589245549,1644.2540231525902
71080,17384,71080,39753,71080,66123,1251.7946367680602,728.3197056837034,1633.7812899842993
71090,17367,71090,39714,71090,66085,1240.5865311776224,724.0123398661233,1623.4770626611469
71090,17335,71090,39699,71090,66072,1229.5001554012006,719.7753421542567,1613.3541759153168
71090,17337,71090,39694,71090,66065,1218.5461400476458,715.6115700332026,1603.4241815483535
71090,17347,71090,39725,71090,66065,1207.7339160498702,711.5227077928154,1593.6971269240223
71090,17332,71090,39772,71090,66081,1197.071840757084,707.5094932839515,1584.1816457059435
71090,17338,71090,39744,71090,66029,1186.5675021579161,703.5724869683769,1574.8852188550547
71100,17300,71100,39711,71100,66023,1176.227929782766,699.7127275465293,1565.8142352669715
71100,17287,71100,39690,71100,66025,1166.0595643062056,695.9316609528964,1556.9737526454521
71100,17283,71100,39713,71100,66018,1156.0680281200612,692.2306179105083,1548.3673388665409
71100,17285,71100,39729,71100,66039,1146.2579658248787,688.6105847295441,1539.997222351576
71100,17291,71100,39735,71100,66027,1136.633158854323,685.0725162264218,1531.8646440757852
71100,17276,71100,39685,71100,66007,1127.1968209897643,681.6177475358409,1523.9702026941368
71111,17237,71111,39656,71111,65970,1117.9517852481627,678.2479037384925,1516.3139013260395
71111,17231,71111,39653,71111,65964,1108.9003472862546,674.9642546467824,1508.8948049129658
71111,17240,71111,39658,71111,65978,1100.0439473649517,671.767075272333,1501.710644089666
71111,17233,71111,39689,71111,65983,1091.3830995924295,668.6554935862606,1494.7577784420469
71111,17250,71111,39711,71111,65965,1082.917635182288,665.6278781820066,1488.0314929176475
71111,17221,71111,39663,71111,65973,1074.6470350746383,662.6824420706106,1481.526269307212
71121,17189,71121,39650,71121,65941,1066.5705706249946,659.8174656588442,1475.2358690256506
71121,17195,71121,39651,71121,65938,1058.687094525988,657.0309588550167,1469.1532557019632
71121,17175,71121,39689,71121,65978,1050.994720785392,654.3203492377604,1463.2705115831977
71121,17199,71121,39687,71121,65971,1043.4907216419338,651.6826982354097,1457.5790818924643
71121,17186,71121,39666,71121,65958,1036.1716860024578,649.115186362081,1452.070296801131
71121,17157,71121,39633,71121,65922,1029.0337411625035,646.6152604863855,1446.7356289312877
71132,17163,71132,39615,71132,65891,1022.0725647163426,644.1802327566098,1441.566403346218
71132,17156,71132,39647,71132,65928,1015.2832434445589,641.8067198224529,1436.553257794032
71132,17156,71132,39676,71132,65921,1008.6602565677795,639.4905255128303,1431.6859221546526
71132,17153,71132,39666,71132,65957,1002.1975976909058,637.2271229061361,1426.953544050946
71132,17158,71132,39633,71132,65923,995.8889344284378,635.0121713076098,1422.3452432298511
71132,17136,71132,39635,71132,65897,989.7277674513173,632.8415198482096,1417.850415437488
71142,17125,71142,39619,71142,65899,983.70747582924,630.7108556939959,1413.4585635278784
71142,17131,71142,39638,71142,65898,977.8212124503801,628.615436149536,1409.1589637536192
71142,17141,71142,39680,71142,65920,972.0618723406441,626.5501678802186,1404.9406148216206
71142,17139,71142,39714,71142,65906,966.4223061182333,624.5102054203676,1400.7925044640037
71142,17123,71142,39626,71142,65881,960.8956128650847,622.4917635426618,1396.7038721066733
71142,17111,71142,39606,71142,65883,955.4752455117565,620.4922390367637,1392.6641785971583
71152,17096,71152,39593,71152,65870,950.1548803871933,618.5093971493038,1388.6628845250698
71152,17080,71152,39608,71152,65900,944.9281685207127,616.5404929744274,1384.6893592476217
71152,17108,71152,39651,71152,65914,939.7885328235723,614.582064509104,1380.7331192848121
71152,17090,71152,39645,71152,65912,934.7291975380083,612.6303873462779,1376.7843599969879
71152,17073,71152,39609,71152,65872,929.7433651691205,610.6820528049162,1372.8344044651358
71152,17084,71152,39577,71152,65851,924.8242517248495,608.7339997617871,1368.875646929361
71163,17074,71163,39610,71163,65856,919.9650330981838,606.7830063652177,1364.9010801085315
71163,17079,71163,39639,71163,65866,915.1589051807006,604.8254066974223,1360.9039348402653
71163,17086,71163,39637,71163,65867,910.3992417359493,602.8574736608845,1356.8777358280981
71163,17063,71163,39623,71163,65859,905.6797753716037,600.8760128671776,1352.8165774129739
71163,17053,71163,39579,71163,65818,900.9946642082372,598.8785220773896,1348.7152451878624
71163,17045,71163,39581,71163,65813,896.3383493306104,596.8627968954538,1344.5689731776076
71173,17038,71173,39582,71173,65798,891.7053489175595,594.8263834943868,1340.3729824617199
71173,17065,71173,39636,71173,65838,887.0901976731965,592.7664228308042,1336.1222041169717
71173,17052,71173,39627,71173,65855,882.4876349447156,590.680096894078,1331.8115063821629
71173,17045,71173,39602,71173,65809,877.892906110449,588.5652622153891,1327.4362703783916
71173,17029,71173,39566,71173,65815,873.301885988151,586.420594799536,1322.9927094523396
71173,17011,71173,39566,71173,65773,868.71094346519,584.2451231000462,1318.4776752744215
71183,17012,71183,39606,71183,65808,864.1166871195485,582.0377440554436,1313.8883090108404
71183,17030,71183,39605,71183,65798,859.5158145585065,579.7972969568019,1309.2219383681204
71183,17012,71183,39597,71183,65805,854.9052234336165,577.5230474496394,1304.4762995264537
71183,17009,71183,39571,71183,65765,850.2822182912022,575.2149786352276,1299.6497845343085
71183,16988,71183,39532,71183,65733,845.6445421765992,572.8735756151234,1294.7413256799919
71183,16967,71183,39510,71183,65736,840.9901885551243,570.4991824063776,1289.7498946309217
71194,16976,71194,39569,71194,65737,836.3171049268838,568.0913440562649,1284.6740352871193
71194,16989,71194,39590,71194,65756,831.6230330708706,565.6487936820571,1279.511814890954
71194,16990,71194,39585,71194,65766,826.9056863312419,563.1701755163658,1274.261181295915
71194,16974,71194,39565,71194,65717,822.1630879513409,560.6547572392667,1268.9204046796547
71194,16958,71194,39533,71194,65720,817.3937204204994,558.1025386834945,1263.4881828274133
71194,16946,71194,39528,71194,65699,812.5963887547882,555.5138500233859,1257.9633695630885
71204,16942,71204,39522,71204,65722,807.7699717987764,552.8888482409764,1252.3447371835298
71204,16941,71204,39593,71204,65723,802.9132599110578,550.2273631510271,1246.6310643467953
71204,16933,71204,39564,71204,65730,798.0249337095912,547.5293479676325,1240.8215069521339
71204,16911,71204,39522,71204,65665,793.1035685624545,544.7954770521076,1234.915916107175
71204,16918,71204,39469,71204,65633,788.1475414176525,542.0270246877283,1228.914627631022
71204,16917,71204,39507,71204,65665,783.1549371545559,539.2250289070204,1222.8177817854737
71214,16907,71214,39499,71214,65669,778.1235981907851,536.3896591038465,1216.6249381910052
71214,16915,71214,39523,71214,65656,773.0512485968761,533.5202670230522,1210.3353319790435
71214,16920,71214,39509,71214,65637,767.9356442145166,530.6157770899165,1203.9482288347585
71214,16883,71214,39502,71214,65638,762.7747447990793,527.6749850440324,1197.4629721811261
71214,16888,71214,39463,71214,65616,757.5667240961609,524.6965544405352,1190.878882396621
71214,16888,71214,39500,71214,65622,752.3098138673414,521.6787515302206,1184.1951902187207
71225,16900,71225,39530,71225,65643,747.0022976213037,518.6193738975975,1177.4111014904222
71225,16879,71225,39523,71225,65637,741.6427310050915,515.5162270606153,1170.5261268343581
71225,16864,71225,39504,71225,65579,736.2300995145574,512.3677443531186,1163.5404536633177
71225,16848,71225,39463,71225,65560,730.7637111945367,509.1731147065265,1156.4548303232307
71225,16838,71225,39459,71225,65556,725.2429255450547,505.9318495715835,1149.2699805733887
71225,16843,71225,39476,71225,65563,719.6669331694618,502.64325446346885,1141.9861635910788
71235,16851,71235,39502,71235,65574,714.0347420104667,499.30633738670696,1134.6032275571836
71235,16844,71235,39481,71235,65583,708.3453884102609,495.92020677813684,1127.121029315926
71235,16820,71235,39499,71235,65552,702.5981645784583,492.48452389569695,1119.5399286894626
71235,16814,71235,39433,71235,65524,696.7926196473616,488.9996474295712,1111.860999244107
71235,16803,71235,39421,71235,65511,690.9283768315674,485.4663205883954,1104.0858037110854
71235,16810,71235,39458,71235,65509,685.0049994316806,481.88509695111117,1096.2160254395328
71245,16798,71245,39487,71245,65511,679.0220169964754,478.2562032454333,1088.2533261703766
71245,16811,71245,39470,71245,65491,672.9790651082602,474.58010818768565,1080.199456382528
71245,16776,71245,39434,71245,65451,666.8760376155424,470.8580910928782,1072.056318643126
71245,16760,71245,39391,71245,65441,660.7130772799198,467.0921201457671,1063.825720818023
71245,16765,71245,39406,71245,65444,654.490346149634,463.284173855782,1055.508989071396
71245,16771,71245,39422,71245,65439,648.2078630207634,459.43570381849224,1047.1068311721463
71256,16764,71256,39435,71256,65466,641.8656366581099,455.54771024899804,1038.6195633889345
71256,16769,71256,39409,71256,65444,635.4639409674824,451.6211833451003,1030.0475694018094
71256,16738,71256,39414,71256,65401,629.003509503382,447.6573822517246,1021.3916734863355
71256,16717,71256,39379,71256,65380,622.4855035893543,443.65778969181645,1012.653039395823
71256,16718,71256,39386,71256,65397,615.9112418815105,439.6238838804262,1003.8327406182226
71256,16720,71256,39415,71256,65409,609.2819665615746,435.5569826620296,994.9316293199751
71266,16708,71266,39383,71266,65370,602.5988667000511,431.45839254945565,985.9506617879066
71266,16693,71266,39362,71266,65324,595.8631948248385,427.32961370131284,976.8910914334385
71266,16680,71266,39352,71266,65324,589.0762479721902,423.17217985982586,967.7541185081443
71266,16668,71266,39318,71266,65303,582.2392212704316,418.9872242672976,958.5403648044814
71266,16664,71266,39334,71266,65334,575.353059482105,414.775052810847,949.2496853027609
71266,16669,71266,39378,71266,65317,568.41841574403,410.53499958708255,939.881409832645
71276,16667,71276,39367,71276,65337,561.4357802057725,406.26583402912036,930.4348285634844
71276,16635,71276,39352,71276,65280,554.4056692590514,401.9664120054276,920.9096198002976
71276,16636,71276,39308,71276,65256,547.3286446325449,397.6358970244901,911.3058902322587
71276,16617,71276,39326,71276,65261,540.2051582833692,393.2734362247971,901.6238114483367
71276,16627,71276,39360,71276,65251,533.0354396012615,388.877876030454,891.8633161447842
71276,16630,71276,39348,71276,65256,525.8195685912601,384.44802545153266,882.0241697162369
71287,16626,71287,39360,71287,65257,518.5577370454263,379.98323433391107,872.1062775899428
71287,16586,71287,39309,71287,65193,511.25049127459965,375.48373613774,862.1099510527959
71287,16583,71287,39267,71287,65150,503.8986771144164,370.9504517022076,852.0357349183319
71287,16561,71287,39271,71287,65169,496.503139800585,366.38429648709865,841.8837423804406
71287,16567,71287,39290,71287,65178,489.0644721232169,361.78553969377566,831.6531952188435
71287,16569,71287,39304,71287,65179,481.58297879976396,357.1537798566402,821.3426611141006
71297,16556,71297,39298,71297,65186,474.05884085361515,352.48841344838036,810.9506642949309
71297,16536,71297,39270,71297,65129,466.49228570572643,347.78905212538,800.4761656462663
71297,16529,71297,39242,71297,65108,458.8835707141044,343.055510190966,789.9185885195683
71297,16517,71297,39255,71297,65113,451.23284895527877,338.2874371634744,779.2774469361028
71297,16528,71297,39285,71297,65137,443.54011353613805,333.48409936055936,768.5521570047149
71297,16520,71297,39285,71297,65116,435.80532161241274,328.64469299170014,757.7423917858537
71307,16499,71307,39256,71307,65086,428.0286050169283,323.76889533793656,746.8485708208323
71307,16482,71307,39231,71307,65047,420.210330717557,318.85704692208446,735.8719217330715
71307,16475,71307,39197,71307,65022,412.3509503836457,313.9097886119164,724.8140653117964
71307,16467,71307,39224,71307,65016,404.45083534583796,308.9275037490752,713.6764822340858
71307,16460,71307,39238,71307,65046,396.510234544411,303.9100934755732,702.4602883766977
71307,16475,71307,39264,71307,65026,388.5293635445472,298.85734832788614,691.1665291319416
71318,16430,71318,39209,71318,64982,380.5085760353794,293.7695720631163,679.7966425797339
71318,16426,71318,39188,71318,64958,372.44840733294893,288.6477838181531,668.3524944754768
71318,16414,71318,39188,71318,64970,364.3493866610902,283.49332657060063,656.8360274978553
71318,16410,71318,39205,71318,64944,356.2118590116521,278.3074626751931,645.249075142742
71318,16412,71318,39184,71318,64945,348.0359986981987,273.09139760274155,633.5934757846512
71318,16399,71318,39186,71318,64953,339.8219579229967,267.84648899326396,621.8712925626562
71328,16382,71328,39158,71328,64915,331.5700086850668,262.57430099572184,610.085092475601
71328,16367,71328,39125,71328,64863,323.2805404051617,257.2764127796859,598.2380539067564
71328,16359,71328,39134,71328,64841,314.95393146722347,251.9540175953113,586.333576669787
71328,16361,71328,39134,71328,64850,306.59046060430387,246.6075875575325,574.3746717202993
71328,16359,71328,39178,71328,64835,298.1903856064415,241.23696433729748,562.3637132524326
71328,16337,71328,39159,71328,64833,289.75413267131603,235.84190002464754,550.3026158151009
71338,16345,71338,39148,71338,64789,281.28243246122474,230.4226515111522,538.1930538813464
71338,16308,71338,39082,71338,64775,272.7763542763313,224.98010222391417,526.0364303613331
71338,16307,71338,39138,71338,64774,264.2372443859614,219.51536262928983,513.8336628045586
71338,16306,71338,39131,71338,64787,255.66661300057763,214.02950111317898,501.5851555561268
71338,16285,71338,39125,71338,64790,247.06611554415372,208.52382006267123,489.2911824621955
71338,16268,71338,39094,71338,64714,238.43758162798588,203.00020153644726,476.95236642410816
71349,16264,71349,39069,71349,64703,229.78293381776666,197.46101249979705,464.5696709275959
71349,16235,71349,39047,71349,64681,221.10404874708718,191.90864241510178,452.14388530644055
71349,16238,71349,39069,71349,64709,212.40263134171232,186.34502726358153,439.6752533196038
71349,16235,71349,39070,71349,64687,203.68014661214977,180.77152216825982,427.1636396373084
71349,16221,71349,39093,71349,64706,194.93789395069155,175.18921969228694,414.6090257769871
71349,16211,71349,39055,71349,64619,186.17713685972728,169.5994304417825,402.0119003820972
71359,16185,71359,39017,71359,64629,177.39911604715815,164.00385642781526,389.373183611821
71359,16176,71359,39014,71359,64608,168.60491548689504,158.40423048430603,376.6938191842439
71359,16184,71359,39048,71359,64627,159.79531698927815,152.80186488024816,363.97460067968746
71359,16180,71359,39063,71359,64597,150.97085370849527,147.19776273072398,351.2164182498443
71359,16166,71359,39034,71359,64581,142.13205850808197,141.59321930548714,338.4205695241201
71359,16152,71359,39007,71359,64540,133.279658242432,135.9902109649825,325.5888007609476
71370,16116,71370,38960,71370,64517,124.41453989001991,130.3911466944291,312.72303772027726
71370,16115,71370,38947,71370,64510,115.53750469969464,124.79815621129052,299.8250065441621
71370,16123,71370,38963,71370,64512,106.64903697468878,119.21239621780893,286.8960481376414
71370,16102,71370,38967,71370,64500,97.74933435861419,113.63382197607876,273.9372676488272
71370,16107,71370,39000,71370,64481,88.83850448780959,108.06150714035056,260.94983281442046
71370,16079,71370,38969,71370,64453,79.91669729296439,102.49422649764858,247.93513375681277
71380,16064,71380,38946,71380,64413,70.98409603822563,96.93085034788544,234.89466657319508
71380,16059,71380,38935,71380,64446,62.040785301105075,91.37026116408083,221.82977423062016
71380,16054,71380,38972,71380,64440,53.0866436142735,85.81110219390621,208.7416676693715
71380,16051,71380,38961,71380,64417,44.12140039843064,80.25189836827121,195.63186872273104
71380,16029,71380,38939,71380,64386,35.1447782594073,74.6914625363944,182.50259315780045
71380,16015,71380,38888,71380,64359,26.156542564698384,69.1289840017663,169.35670343709808
71390,15997,71390,38897,71390,64302,17.156393543683407,63.563578808859916,156.1973201650669
71390,15997,71390,38898,71390,64299,8.143810195465448,57.99377131022027,143.02724997495307
71390,15999,71390,38910,71390,64299,-0.8819779266517571,52.41740487834818,129.848509027486
71390,15992,71390,38912,71390,64288,-9.92181818881727,46.83195145314619,116.66226987107484
71390,15980,71390,38932,71390,64280,-18.97638301383961,41.23496702311991,103.46913850092278
71390,15954,71390,38867,71390,64265,-28.0460430580614,35.624472528079195,90.26944182237071
71401,15951,71401,38853,71401,64234,-37.13093624315832,29.998910152261715,77.0633797797509
71401,15938,71401,38897,71401,64253,-46.23109907077742,24.35672363826302,63.85106641499465
71401,15941,71401,38902,71401,64231,-55.34649022769406,18.696297279829878,50.63264804548817
71401,15926,71401,38877,71401,64220,-64.47688422465603,13.016464106956619,37.408575449098635
71401,15904,71401,38846,71401,64178,-73.62176459431168,7.3168588180993765,24.17977707653722
71401,15879,71401,38790,71401,64151,-82.78038867747989,1.5976095623917672,10.947514706454058
71411,15877,71411,38823,71411,64108,-91.95202806623956,-4.141386546429317,-2.287042065408059
71411,15867,71411,38828,71411,64117,-101.13616819310755,-9.900936358033732,-15.523312079303878
71411,15875,71411,38851,71411,64133,-110.33249507726464,-15.682347070296942,-28.761499306484893
71411,15857,71411,38838,71411,64104,-119.54070567679389,-21.486819251086445,-42.00229168619012
71411,15832,71411,38796,71411,64081,-128.76034221211114,-27.315017270844578,-55.2464385193548
71411,15812,71411,38775,71411,64054,-137.99085891994037,-33.167179360328305,-68.49467186275479
71421,15827,71421,38789,71421,64059,-147.2318362614202,-39.04359323486858,-81.7478727467078
71421,15820,71421,38830,71421,64057,-156.4830046453851,-44.94478564075769,-95.00708352782658
71421,15805,71421,38836,71421,64052,-165.74401090326853,-50.87102714521859,-108.27321457776816
71421,15784,71421,38770,71421,64018,-175.0142351362805,-56.82161154458663,-121.54666789399107
71421,15775,71421,38735,71421,63988,-184.29283604058867,-62.79479020822657,-134.827215574928
71421,15746,71421,38713,71421,63972,-193.57892152626152,-68.78853137627698,-148.11420803308852
71432,15737,71432,38750,71432,63961,-202.87175966423456,-74.80133140436021,-161.40685089981366
71432,15758,71432,38767,71432,63943,-212.1709247595354,-80.83232519348837,-174.70431184870222
71432,15745,71432,38763,71432,63929,-221.47616406484576,-86.88071609239773,-188.00569379587841
71432,15723,71432,38732,71432,63910,-230.78707217488466,-92.94516885073199,-201.31000200512676
71432,15698,71432,38693,71432,63870,-240.1029738136317,-99.02373432229865,-214.61619215433575
71432,15696,71432,38680,71432,63858,-249.42310812500114,-105.11432417978432,-227.92337427890016
71442,15689,71442,38684,71442,63843,-258.7468149830685,-111.21529857955761,-241.23108358732384
71442,15688,71442,38736,71442,63851,-268.07351288354016,-117.32562246187979,-254.53936926521965
71442,15663,71442,38714,71442,63823,-277.4025574864361,-123.44438209886835,-267.8486223642192
71442,15652,71442,38660,71442,63791,-286.73318725400236,-129.5701921450824,-281.1593917001096
71442,15648,71442,38654,71442,63776,-296.064594661266,-135.701239979889,-294.4724548865677
71442,15625,71442,38623,71442,63760,-305.39599146713977,-141.83588239319425,-307.7890473551704
71452,15611,71452,38639,71452,63770,-314.7266599815795,-147.97317541392653,-321.1109457847083
71452,15606,71452,38666,71452,63750,-324.05605916460433,-154.11298115720882,-334.44028448359745
71452,15603,71452,38657,71452,63772,-333.38388439864093,-160.25559303487933,-347.77918764991205
71452,15593,71452,38640,71452,63718,-342.7099817944495,-166.40120515949303,-361.1293712547654
71452,15576,71452,38591,71452,63664,-352.03421823218844,-172.5497642491543,-374.4920403101205
71452,15560,71452,38608,71452,63690,-361.3564569038348,-178.70131331245818,-387.868267655027
71463,15558,71463,38619,71463,63692,-370.6766343193725,-184.8563394005484,-401.25930377543
71463,15560,71463,38648,71463,63677,-379.9947748650442,-191.01560735425272,-414.66629753283723
71463,15554,71463,38610,71463,63653,-389.31082554572595,-197.1795867928659,-428.0898163244424
71463,15519,71463,38578,71463,63594,-398.62445055392845,-203.3481057512929,-441.5297484789571
71463,15484,71463,38552,71463,63563,-407.9350973257441,-209.52062355774342,-454.9857275139751
71463,15505,71463,38556,71463,63574,-417.2423583830224,-215.69682749538708,-468.45777672707595
71473,15496,71473,38584,71473,63594,-426.54619185887657,-221.87695221933836,-481.9465568997192
71473,15502,71473,38590,71473,63586,-435.8467335922478,-228.06152445249984,-495.45293177401527
71473,15471,71473,38564,71473,63540,-445.1439740008519,-234.25080413634606,-508.9773309130055
71473,15447,71473,38530,71473,63510,-454.4376680522081,-240.4445129530866,-522.5195696608228
71473,15449,71473,38536,71473,63490,-463.7275248846705,-246.64206473070584,-536.0791889339469
71473,15453,71473,38528,71473,63477,-473.01336746153174,-252.8429010937473,-549.6558696359616
71483,15449,71483,38567,71483,63501,-482.29499514108954,-259.0464891851476,-563.2495412550754
71483,15437,71483,38538,71483,63504,-491.5718786924476,-265.2519389827412,-576.8600349056521
71483,15407,71483,38484,71483,63414,-500.8429852577267,-271.45768342788153,-590.4865681946173
71483,15382,71483,38461,71483,63403,-510.1068972053731,-277.661771850728,-604.1277641584359
71483,15371,71483,38467,71483,63378,-519.3621621760451,-283.8626128209146,-617.7822832269644
71483,15374,71483,38481,71483,63392,-528.607603189826,-290.0594298502049,-631.4493255564446
71494,15362,71494,38517,71494,63407,-537.8423723252183,-296.25205560885956,-645.128534274271
71494,15367,71494,38492,71494,63364,-547.0657986044287,-302.4402771761636,-658.8194878744725
71494,15325,71494,38462,71494,63332,-556.2772345135631,-308.62329493374966,-672.521340332373
71494,15323,71494,38409,71494,63320,-565.4760893909754,-314.7998152118746,-686.2329489469198
71494,15319,71494,38428,71494,63309,-574.6620072110311,-320.96869374442224,-699.9531722211066
71494,15312,71494,38483,71494,63314,-583.8349277264019,-327.12936703069056,-713.6809128418813
71504,15306,71504,38470,71504,63297,-592.9949662254567,-333.28145238390437,-727.4148794941143
71504,15302,71504,38423,71504,63266,-602.1422535723923,-339.4239942879873,-741.1533124227296
71504,15271,71504,38383,71504,63217,-611.2768316475413,-345.5553608469686,-754.8939945647928
71504,15261,71504,38339,71504,63202,-620.3986993037838,-351.6739826143636,-768.6346555709217
71504,15258,71504,38403,71504,63199,-629.5079845570115,-357.7792336448199,-782.373453090252
71504,15255,71504,38414,71504,63212,-638.6050204048745,-363.871606875868,-796.1090861762602
71514,15258,71514,38435,71514,63221,-647.6902089217617,-369.9520057741629,-809.8404032659907
71514,15244,71514,38388,71514,63164,-656.7637727872191,-376.0208706590404,-823.5658164377251
71514,15212,71514,38370,71514,63135,-665.8255945897567,-382.0778864378416,-837.2830886371112
71514,15199,71514,38337,71514,63115,-674.8753219915786,-388.1223385282791,-850.9896780900874
71514,15189,71514,38376,71514,63120,-683.9126578124735,-394.15362319147596,-864.6831623815322
71514,15205,71514,38379,71514,63114,-692.9375233934618,-400.1713335142217,-878.3612808770572
71525,15196,71525,38382,71525,63090,-701.9499090706638,-406.17482594719127,-892.0216704488155
71525,15168,71525,38326,71525,63061,-710.9495878306623,-412.16279156127837,-905.661670997873
71525,15145,71525,38313,71525,63018,-719.936060470453,-418.1333642862959,-919.278457869046
71525,15132,71525,38267,71525,63012,-728.9088213172263,-424.0847378437236,-932.8694425609876
71525,15135,71525,38320,71525,62995,-737.8676551342794,-430.0158057375844,-946.4326443379332
71525,15131,71525,38316,71525,62990,-746.8126960761467,-435.92628807297433,-959.9668021249493
71535,15127,71535,38335,71535,62987,-755.7442588213748,-441.8162521481461,-973.4712490153645
71535,15110,71535,38264,71535,62968,-764.6626321134554,-447.6855874054586,-986.945672885219
71535,15091,71535,38264,71535,62922,-773.5680067216533,-453.53404793215213,-1000.389963492519
71535,15087,71535,38272,71535,62925,-782.4605621019123,-459.3617269281899,-1013.8043342840047
71535,15074,71535,38291,71535,62917,-791.3405802133118,-465.169264966445,-1027.1895246414224
71535,15078,71535,38288,71535,62926,-800.2084589929202,-470.95752491234236,-1040.54671424858
71545,15063,71545,38282,71545,62913,-809.0646194122924,-476.727109898909,-1053.8771374200755
71545,15044,71545,38242,71545,62850,-817.909411340559,-482.4781371749309,-1067.1817616319745
71545,15030,71545,38198,71545,62828,-826.7431537936957,-488.21048839637274,-1080.461441036782
71545,15028,71545,38222,71545,62821,-835.566279206151,-493.92443719434175,-1093.7174599389807
71545,15015,71545,38216,71545,62833,-844.3794137482842,-499.62111773404627,-1106.9518692075749
71545,15029,71545,38268,71545,62825,-853.1833147535128,-505.3023951071664,-1120.1672978623833
71556,15014,71556,38208,71556,62816,-861.9786753578121,-510.9703156112066,-1133.3664947628658
71556,14982,71556,38205,71556,62780,-870.7659359692764,-516.6267500486433,-1146.5519929252557
71556,14963,71556,38175,71556,62749,-879.5453636094353,-522.2735821122268,-1159.7261189970704
71556,14971,71556,38224,71556,62758,-888.3173586400931,-527.9130532437905,-1172.8912587689706
71556,14980,71556,38249,71556,62759,-897.0825800773503,-533.5476102462482,-1186.0499759324684
71556,14978,71556,38219,71556,62733,-905.8416871107484,-539.1792029643805,-1199.2047796152353
71566,14943,71566,38173,71566,62704,-914.594980132053,-544.8087665732361,-1212.3578806019532
71566,14916,71566,38131,71566,62659,-923.3423642153934,-550.4365279115755,-1225.511316624364
71566,14915,71566,38128,71566,62658,-932.0836836115757,-556.0628889356283,-1238.6673899882499
71566,14905,71566,38169,71566,62666,-940.8190569196784,-561.6890980291133,-1251.82900463339
71566,14899,71566,38182,71566,62675,-949.5489640230351,-567.3171485820694,-1264.99953018992
71566,14893,71566,38160,71566,62620,-958.2741839488892,-572.9491172904198,-1278.182354840067
71576,14888,71576,38137,71576,62603,-966.9957030385906,-578.5866929185622,-1291.380705667217
71576,14870,71576,38116,71576,62565,-975.7146278104874,-584.2312718759324,-1304.5979549499032
71576,14867,71576,38086,71576,62555,-984.4321530804316,-589.8844080647063,-1317.838094574431
71576,14858,71576,38131,71576,62596,-993.1495711414514,-595.548238515154,-1331.1059575231548
71576,14853,71576,38136,71576,62586,-1001.8682430421502,-601.2254779894156,-1344.406882754642
71576,14843,71576,38139,71576,62582,-1010.5895258539888,-606.9188995141893,-1357.7459771301722
71587,14820,71587,38098,71587,62522,-1019.3147368353991,-612.6308168093841,-1371.1275914594898
71587,14805,71587,38061,71587,62509,-1028.0452475423263,-618.3631108852759,-1384.5553909691241
71587,14790,71587,38087,71587,62494,-1036.7827037961863,-624.1177278814774,-1398.0327832822256
71587,14810,71587,38104,71587,62469,-1045.5291933778774,-629.8969964480141,-1411.56325250227
71587,14806,71587,38118,71587,62501,-1054.2871408106557,-635.70331533986,-1425.150415131924
71587,14787,71587,38085,71587,62439,-1063.0589858320704,-641.5385511384353,-1438.7978462861063
71597,14774,71597,38052,71597,62413,-1071.8469793950699,-647.4037976662923,-1452.5089857151602
71597,14756,71597,38032,71597,62421,-1080.6532468789312,-653.299721671107,-1466.2873825618778
71597,14763,71597,38052,71597,62428,-1089.479938328771,-659.2271082121742,-1480.1368739997972
71597,14754,71597,38080,71597,62422,-1098.3292511419927,-665.1870026570247,-1494.061282779505
71597,14738,71597,38072,71597,62400,-1107.2033210864931,-671.1802691523402,-1508.0639148617652
71597,14723,71597,38036,71597,62348,-1116.104169787668,-677.2070492089626,-1522.147342713998
71608,14709,71608,37983,71608,62333,-1125.0338057557633,-683.2667720158398,-1536.313656303321
71608,14690,71608,37964,71608,62281,-1133.9944040113878,-689.3588480201832,-1550.5650076635254
71608,14701,71608,37985,71608,62338,-1142.9884590106276,-695.4835115248572,-1564.9040583879294
71608,14688,71608,38019,71608,62313,-1152.0187934239227,-701.6420938950564,-1579.3339191625084
71608,14683,71608,38010,71608,62301,-1161.088418642194,-707.836551301567,-1593.8576257787136
71608,14694,71608,37989,71608,62261,-1170.2003562028244,-714.0688136030304,-1608.4777525764737
71618,14667,71618,37956,71618,62254,-1179.3574423032935,-720.3405897588282,-1623.1964688074868
71618,14633,71618,37968,71618,62220,-1188.5622428027564,-726.6536459039669,-1638.0157808269178
71618,14637,71618,37968,71618,62256,-1197.8172627796687,-733.0100723620485,-1652.9376483918934
71618,14644,71618,37986,71618,62216,-1207.125201645008,-739.4121853881682,-1667.9638029877353
71618,14631,71618,37952,71618,62200,-1216.4888955318202,-745.8621930934634,-1683.095432043889
71618,14608,71618,37953,71618,62175,-1225.9111107959848,-752.3619978444851,-1698.3330952814213
71628,14595,71628,37921,71628,62111,-1235.3945386417145,-758.9132908949757,-1713.6769723189107
71628,14595,71628,37923,71628,62121,-1244.9419584043385,-765.5178036000142,-1729.1273423552996
71628,14589,71628,37925,71628,62140,-1254.5563063203588,-772.1775046894464,-1744.6849417703957
71628,14593,71628,37959,71628,62136,-1264.2405525570798,-778.8945148637102,-1760.3507281074167
71628,14575,71628,37928,71628,62097,-1273.9974875949865,-785.6706840106943,-1776.125268979543
71628,14569,71628,37901,71628,62065,-1283.8295615541097,-792.5072276284118,-1792.0084540590635
71639,14539,71639,37888,71639,62042,-1293.738871491648,-799.4048311883595,-1807.9997223889047
71639,14548,71639,37911,71639,62034,-1303.7272743319015,-806.3639795549292,-1824.0984286096414
71639,14549,71639,37917,71639,62039,-1313.7964371552061,-813.3849569392104,-1840.3039636121166
71639,14531,71639,37895,71639,62043,-1323.94768515016,-820.4674809457563,-1856.6155001192326
71639,14510,71639,37858,71639,61996,-1334.1818374064806,-827.6104786589516,-1873.0315494031406
71639,14487,71639,37829,71639,61955,-1344.499285495457,-834.8123710727817,-1889.5497926010332
71649,14480,71649,37821,71649,61937,-1354.9002601708476,-842.0716918561981,-1906.167415360449
71649,14472,71649,37851,71649,61934,-1365.3850554714936,-849.3875386172919,-1922.8815654287612
71649,14486,71649,37859,71649,61934,-1375.954042247681,-856.7594701795282,-1939.6894556776233
71649,14458,71649,37874,71649,61908,-1386.6074731255644,-864.1869187074161,-1956.5881126542904
71649,14451,71649,37828,71649,61902,-1397.3452913899464,-871.6685841811056,-1973.5740884763125
71649,14433,71649,37802,71649,61850,-1408.1671238901831,-879.2022969373423,-1990.6433628263119
71659,14424,71659,37788,71659,61861,-1419.0723830943007,-886.785421174764,-2007.7914493267392
71659,14422,71659,37820,71659,61848,-1430.0603285478242,-894.4153036800101,-2025.0134878636911
71659,14407,71659,37808,71659,61823,-1441.1300331153643,-902.0892538326141,-2042.3041206338978
71659,14408,71659,37806,71659,61799,-1452.2802843850327,-909.804162231082,-2059.6573362316167
71659,14393,71659,37754,71659,61774,-1463.5094698360188,-917.5562761017952,-2077.06651872522
71659,14370,71659,37759,71659,61738,-1474.8155024740017,-925.3414047950502,-2094.5246594196838
71670,14365,71670,37770,71670,61739,-1486.1958638882606,-933.155266096817,-2112.0246100937957
71670,14366,71670,37756,71670,61747,-1497.6476818251886,-940.9935262480427,-2129.5591613988063
71670,14366,71670,37777,71670,61740,-1509.1676379641062,-948.851537856644,-2147.120736183304
71670,14329,71670,37752,71670,61737,-1520.7517545582102,-956.7240267860336,-2164.7008335709165
71670,14320,71670,37739,71670,61691,-1532.3953494406396,-964.6048920955153,-2182.289578192919
71670,14305,71670,37700,71670,61662,-1544.0932202356307,-972.4872871737095,-2199.875641986616
71680,14299,71680,37724,71680,61661,-1555.8398191256897,-980.3639397632411,-2217.446492335196
71680,14304,71680,37749,71680,61647,-1567.6292523959787,-988.2272719493798,-2234.9885743124887
71680,14288,71680,37731,71680,61643,-1579.4551150532009,-996.0690208376277,-2252.4871886380697
71680,14272,71680,37726,71680,61602,-1591.3103003471165,-1003.8797122958026,-2269.92626208171
71680,14266,71680,37655,71680,61576,-1603.1869361818808,-1011.6485506258455,-2287.288316375525
71680,14252,71680,37651,71680,61544,-1615.0764041257921,-1019.3638964880982,-2304.5547251963453
71690,14235,71690,37659,71690,61570,-1626.9693502062612,-1027.0139630817093,-2321.7060027687858
71690,14241,71690,37652,71690,61561,-1638.8556897912788,-1034.5871420485578,-2338.721723993007
71690,14234,71690,37681,71690,61525,-1650.724534005601,-1042.0718259119167,-2355.5801010123405
71690,14217,71690,37632,71690,61512,-1662.5640036049679,-1049.4560491968575,-2372.2577046001074
71690,14191,71690,37625,71690,61463,-1674.3611208906154,-1056.7273391880672,-2388.7295718947867
71690,14187,71690,37609,71690,61455,-1686.1019115895729,-1063.8729345629158,-2404.969539342205
71701,14199,71701,37665,71701,61479,-1697.7715147473814,-1070.8799837482493,-2420.950492019543
71701,14177,71701,37633,71701,61481,-1709.354060261471,-1077.7352701006294,-2436.6441537732944
71701,14160,71701,37625,71701,61460,-1720.8324602431871,-1084.4247193159758,-2452.020463571981
71701,14139,71701,37584,71701,61391,-1732.1884101845421,-1090.9332885200365,-2467.0471703927087
71701,14136,71701,37568,71701,61382,-1743.4025721490832,-1097.2453528470771,-2481.690098904729
71701,14126,71701,37570,71701,61385,-1754.4547078487049,-1103.3452439331973,-2495.913730816168
71711,14117,71711,37628,71711,61376,-1765.323675208966,-1109.2174510842874,-2509.6814331323367
71711,14121,71711,37617,71711,61371,-1775.9873437160422,-1114.8461618288297,-2522.955255545259
71711,14114,71711,37570,71711,61376,-1786.4224413711613,-1120.2145653180742,-2535.695617885912
71711,14099,71711,37543,71711,61310,-1796.6043623009778,-1125.304762979639,-2547.861101359199
71711,14074,71711,37532,71711,61287,-1806.5070936269285,-1130.0983760120698,-2559.4086160197253
71711,14087,71711,37556,71711,61287,-1816.1033150051403,-1134.577150087227,-2570.293966060637
71721,14075,71721,37573,71721,61304,-1825.3644591860634,-1138.7230175154725,-2580.472247661489
71721,14063,71721,37580,71721,61280,-1834.2606211473112,-1142.5176518652825,-2589.8977307155346
71721,14059,71721,37550,71721,61262,-1842.7604786195784,-1145.9419588187413,-2598.523604321407
71721,14017,71721,37503,71721,61196,-1850.8313625841172,-1148.9760199075167,-2606.3021096357534
71721,14010,71721,37489,71721,61220,-1858.4395313680732,-1151.5996637849626,-2613.1851304024417
71721,14009,71721,37518,71721,61209,-1865.5505603449806,-1153.7932224775116,-2619.124771168603
71732,14010,71732,37540,71732,61214,-1872.1295609575695,-1155.5377791240794,-2624.0734997540185
71732,14009,71732,37561,71732,61202,-1878.1411249380849,-1156.8147337959203,-2627.9840194385433
71732,13989,71732,37487,71732,61189,-1883.549197223661,-1157.6052546515161,-2630.8092204811046
71732,13971,71732,37482,71732,61139,-1888.31711346133,-1157.890355711099,-2632.502396655077
71732,13974,71732,37506,71732,61148,-1892.4078417163742,-1157.6515492407643,-2633.017795099657
71732,13977,71732,37529,71732,61180,-1895.7842089798212,-1156.8712152983599,-2632.31117112213
71742,13978,71742,37532,71742,61163,-1898.4089214150072,-1155.5323186936164,-2630.339879919695
71742,13966,71742,37526,71742,61163,-1900.2444766803205,-1153.6179616480495,-2627.062688780028
71742,13948,71742,37481,71742,61122,-1901.2532002353714,-1151.111298874034,-2622.4398656342664
71742,13936,71742,37477,71742,61106,-1901.3975181438814,-1147.9959775153504,-2616.433735518837
71742,13943,71742,37476,71742,61127,-1900.6403522335368,-1144.256845474993,-2609.009463373698
71742,13942,71742,37523,71742,61159,-1898.9454081165754,-1139.8803943879307,-2600.135554405755
71752,13956,71752,37494,71752,61156,-1896.2772601249508,-1134.8546989228366,-2589.78381409727
71752,13942,71752,37518,71752,61192,-1892.6013334908314,-1129.1691948544649,-2577.9290764770853
71752,13929,71752,37496,71752,61159,-1887.8839872856524,-1122.8146706787968,-2564.5490658324275
71752,13930,71752,37505,71752,61172,-1882.0928287482025,-1115.7834650156744,-2549.624560639855
71752,13950,71752,37523,71752,61191,-1875.1970941375382,-1108.0697001000628,-2533.139815906137
71752,13964,71752,37549,71752,61245,-1867.1678016879102,-1099.6693370910655,-2515.0828377641064
71763,13965,71763,37582,71763,61262,-1857.977669559592,-1090.5799076782782,-2495.44519512442
71763,13966,71763,37546,71763,61256,-1847.6010668491258,-1080.80011841718,-2474.2216622052783
71763,13970,71763,37544,71763,61233,-1836.0141644817422,-1070.3297993995852,-2451.4102871806417
71763,13967,71763,37542,71763,61284,-1823.1952321681756,-1059.1703652661827,-2427.0130085305545
71763,13988,71763,37565,71763,61338,-1809.124972907361,-1047.3253797680998,-2401.0361857206353
71763,14007,71763,37606,71763,61389,-1793.7867682344686,-1034.8007684861252,-2373.490449163405
71773,14031,71773,37664,71773,61409,-1777.166729597065,-1021.604501499478,-2344.3900878106983
71773,14042,71773,37629,71773,61424,-1759.2536211495571,-1007.7459279476398,-2313.752611502028
71773,14038,71773,37630,71773,61454,-1740.0388669000047,-993.2354098195073,-2281.5987689005574
71773,14067,71773,37624,71773,61468,-1719.5167761316545,-978.0846553629609,-2247.952844379629
71773,14093,71773,37680,71773,61546,-1697.6848274947324,-962.307286318745,-2212.8429255724704
71773,14121,71773,37731,71773,61602,-1674.5437630267006,-945.918916124845,-2176.300829136301
71783,14154,71783,37740,71783,61634,-1650.0974982461214,-928.9366050809265,-2138.361623103555
71783,14160,71783,37715,71783,61652,-1624.3530223298699,-911.378317296959,-2099.0632001226163
71783,14192,71783,37739,71783,61694,-1597.3204359726342,-893.2629981318206,-2058.4463011448715
71783,14202,71783,37764,71783,61715,-1569.0131489561502,-874.6110347621631,-2016.5548405916813
71783,14252,71783,37792,71783,61821,-1539.4481095982069,-855.4444860745576,-1973.436143117611
71783,14300,71783,37854,71783,61892,-1508.6458673140164,-835.7868970564231,-1929.140693889658
71794,14336,71794,37859,71794,61942,-1476.6303564299435,-815.6628264876603,-1883.7213441817764
71794,14375,71794,37887,71794,61953,-1443.428556406115,-795.0973664453254,-1837.232583836153
71794,14396,71794,37871,71794,62001,-1409.0702847020043,-774.1159907884879,-1789.7304576621138
71794,14447,71794,37912,71794,62078,-1373.5881780716322,-752.7447722833417,-1741.2728730612944
71794,14487,71794,37970,71794,62166,-1337.0177095385084,-731.0105810089025,-1691.919592801712
71794,14532,71794,37992,71794,62222,-1299.3970963033316,-708.9408483324971,-1641.7316621410394
71804,14580,71804,37991,71804,62260,-1260.767123738435,-686.5631020026692,-1590.7707176261274
71804,14608,71804,38018,71804,62308,-1221.1709874360672,-663.9048259690835,-1539.098689614791
71804,14647,71804,38025,71804,62345,-1180.6542531704106,-640.993680463172,-1486.7779268747931
71804,14716,71804,38073,71804,62439,-1139.264907059909,-617.8577293171443,-1433.8714073323076
71804,14783,71804,38128,71804,62493,-1097.0532192226476,-594.5253923233329,-1380.4426787898853
71804,14834,71804,38170,71804,62590,-1054.0712716355124,-571.0249820858479,-1326.5554324519671
71814,14876,71814,38168,71814,62635,-1010.37241974579,-547.3840652684726,-1272.2728974255258
71814,14907,71814,38159,71814,62676,-966.011024108429,-523.6292180121477,-1217.6573657837669
71814,14954,71814,38198,71814,62723,-921.0425049581067,-499.78637092842604,-1162.7701152960556
71814,15024,71814,38253,71814,62826,-875.523481174069,-475.8812044932368,-1107.6715638781793
71814,15094,71814,38300,71814,62883,-829.5116558985876,-451.93899699796003,-1052.4211377220945
71814,15138,71814,38297,71814,62934,-783.0653862587258,-427.98407195478717,-997.0768106667193
71825,15181,71825,38305,71825,62963,-736.2432631620991,-404.0394998220657,-941.6948349983397
71825,15228,71825,38303,71825,62998,-689.1039744996924,-380.12737098387174,-886.3299734480665
71825,15290,71825,38374,71825,63090,-641.7063405728786,-356.2692891271505,-831.0359775878337
71825,15345,71825,38400,71825,63174,-594.1092648492868,-332.4864974146493,-775.8657381256335
71825,15415,71825,38440,71825,63260,-546.371507069073,-308.799511277933,-720.8707977440865
71825,15478,71825,38483,71825,63300,-498.5513111930144,-285.22760522097553,-666.1005607017455
71835,15527,71835,38473,71835,63355,-450.7059672358557,-261.7884261736234,-611.6017641676167
71835,15584,71835,38446,71835,63379,-402.89145080475714,-238.4980079962727,-557.4184424132261
71835,15626,71835,38497,71835,63456,-355.16222550470775,-215.3713525030139,-503.59221234775873
71835,15695,71835,38565,71835,63539,-307.57114163510937,-192.42296935907245,-450.1624560014618
71835,15743,71835,38594,71835,63597,-260.1693019141401,-169.6666498677863,-397.16607075622915
71835,15802,71835,38596,71835,63618,-213.00584799225567,-147.1148020158672,-344.6370450756667
71846,15828,71846,38582,71846,63662,-166.12778549385348,-124.77820843454322,-292.6064211257942
71846,15876,71846,38562,71846,63686,-119.58000586319372,-102.66652864244611,-241.10273626605886
71846,15935,71846,38635,71846,63760,-73.40545289137208,-80.78914653909942,-190.1525801449252
71846,15996,71846,38689,71846,63861,-27.645163307384337,-59.155553336222624,-139.78080707569825
71846,16047,71846,38695,71846,63871,17.66194543570714,-37.774925630091616,-90.01020449446241
71846,16088,71846,38714,71846,63916,62.4793573560371,-16.655547918465118,-40.86111654493425
71856,16121,71856,38720,71856,63946,106.77307461008468,4.195303500826071,7.648419410207907
71856,16155,71856,38734,71856,63987,150.5114888722851,24.771126824529006,55.50220008535234
71856,16215,71856,38777,71856,64091,193.66513198414145,45.06594336318483,102.68553771382449
71856,16271,71856,38813,71856,64135,236.20657403734072,65.07429380942199,149.18543413470115
71856,16307,71856,38835,71856,64164,278.1105750874799,84.791549135845,194.9910840878913
71856,16339,71856,38829,71856,64195,319.3542505715898,104.21422667240711,240.0940868642142
71866,16367,71866,38852,71866,64202,359.91699424188505,123.33997962534795,284.4881076332563
71866,16416,71866,38847,71866,64267,399.7802140061315,142.16730670054653,328.1682659848566
71866,16457,71866,38876,71866,64319,438.9271221749375,160.69521059520832,371.13068498214807
71866,16507,71866,38905,71866,64380,477.3427163176382,178.92297945502094,413.3724902918434
71866,16547,71866,38955,71866,64432,515.0139006861575,196.8502653759782,454.8921502478661
71866,16574,71866,38922,71866,64444,551.9296110868843,214.47739319502944,495.6898068459552
71877,16608,71877,38948,71877,64464,588.0808080425627,231.80545031835356,535.7672597653911
71877,16654,71877,38987,71877,64525,623.4603548001662,248.83605234732272,575.1275811636588
71877,16694,71877,39023,71877,64564,658.0629646443949,265.57130456724246,613.7747962984758
71877,16716,71877,39021,71877,64592,691.8852643019677,282.014139361381,651.7138686904441
71877,16740,71877,39010,71877,64639,724.925779339173,298.1685255790429,688.9507387676963
71877,16766,71877,38993,71877,64624,757.1847222716472,314.0391429998084,725.4921851391314
71887,16788,71887,38996,71887,64675,788.6636805830565,329.6306351024265,761.3454374873588
71887,16834,71887,39056,71887,64735,819.3653503654593,344.94692569253834,796.5177432485061
71887,16865,71887,39091,71887,64769,849.2934308930023,359.99113148825336,831.0163148636452
71887,16904,71887,39129,71887,64816,878.4527023119306,374.76612923015034,864.8486330941134
71887,16924,71887,39123,71887,64846,906.8491588402424,389.2752652129211,898.0227338108027
71887,16927,71887,39094,71887,64845,934.4900030521917,403.522620264799,930.5472817219047
71897,16960,71897,39102,71897,64868,961.3833917813331,417.51261150654307,962.4313093654682
71897,16983,71897,39178,71897,64941,987.5380851982461,431.24941038652037,993.6837850206982
71897,17028,71897,39163,71897,64959,1012.9632720120594,444.73690944330815,1024.3135010224337
71897,17050,71897,39181,71897,64993,1037.6686373045954,457.97910612499254,1054.329308508583
71897,17058,71897,39154,71897,65012,1061.6644865252824,470.9801911938263,1083.7402571544499
71897,17068,71897,39146,71897,65031,1084.9616622571148,483.7441210060905,1112.55548379029
71908,17107,71908,39184,71908,65059,1107.5712473576077,496.2739811455881,1140.783975089887
71908,17133,71908,39234,71908,65092,1129.5043637623166,508.57168769728537,1168.4343436840245
71908,17154,71908,39263,71908,65140,1150.7722183803094,520.6383721236853,1195.5147732461046
71908,17181,71908,39270,71908,65173,1171.3862237131116,532.4751157687749,1222.0332071588518
71908,17192,71908,39254,71908,65166,1191.3580491564417,544.0834025499482,1247.9975943230029
71908,17199,71908,39249,71908,65206,1210.6995621474157,555.465002433948,1273.4158741350216
71918,17223,71918,39278,71918,65208,1229.4226365265636,566.6215204044615,1298.2957064574211
71918,17258,71918,39319,71918,65290,1247.5389754707207,577.5541552517413,1322.6442903679595
71918,17274,71918,39349,71918,65286,1265.0601469450817,588.2639959803441,1346.4685122728397
71918,17287,71918,39335,71918,65278,1281.99774225874,598.7525906903074,1369.7751661474713
71918,17285,71918,39305,71918,65321,1298.3633922481513,609.0221666146076,1392.5707883305909
71918,17301,71918,39303,71918,65328,1314.1685496530326,619.0751855654589,1414.8612665362293
71928,17329,71928,39331,71928,65360,1329.4242154041317,628.9136212559708,1436.6516377465932
71928,17349,71928,39372,71928,65401,1344.1408553547917,638.53863435019,1457.9460909972931
71928,17374,71928,39399,71928,65431,1358.3285415109985,647.9508900547378,1478.748152639981
71928,17373,71928,39381,71928,65452,1371.9971352917314,657.1511357336599,1499.0610195497807
71928,17386,71928,39364,71928,65429,1385.156326316339,666.140419266028,1518.8877366114998
71928,17397,71928,39392,71928,65461,1397.815506168176,674.9197801553341,1538.2309654238757
71939,17416,71939,39420,71939,65520,1409.9836286067907,683.4899314334893,1557.0926395967876
71939,17429,71939,39444,71939,65530,1421.6691753315008,691.85140385774,1575.4740489216679
71939,17436,71939,39426,71939,65532,1432.8801865390242,700.0049459610473,1593.3762107007124
